2.09961e-05
2.09961e-05
2.09717e-05
2.09961e-05
2.09717e-05
2.09717e-05
2.09961e-05
2.09961e-05
2.09717e-05
2.09717e-05
2.09717e-05
2.09717e-05
2.09717e-05
2.09717e-05
2.09717e-05
2.09717e-05
2.09717e-05
2.09717e-05
2.09473e-05
2.09717e-05
2.09473e-05
2.09473e-05
2.09473e-05
2.09473e-05
2.09473e-05
2.09473e-05
2.09473e-05
2.09473e-05
2.09473e-05
2.09473e-05
2.09473e-05
2.09473e-05
2.09229e-05
2.09473e-05
2.09473e-05
2.09229e-05
2.09473e-05
2.09473e-05
2.09229e-05
2.09229e-05
2.09229e-05
2.09473e-05
2.09229e-05
2.09229e-05
2.09229e-05
2.09229e-05
2.09229e-05
2.09229e-05
2.09473e-05
2.08984e-05
2.09229e-05
2.09229e-05
2.09229e-05
2.09229e-05
2.09229e-05
2.09229e-05
2.09229e-05
2.08984e-05
2.08984e-05
2.08984e-05
2.09229e-05
2.08984e-05
2.08984e-05
2.08984e-05
2.09229e-05
2.08984e-05
2.08984e-05
2.08984e-05
2.09229e-05
2.08984e-05
2.08984e-05
2.08984e-05
2.08984e-05
2.08984e-05
2.08984e-05
2.08984e-05
2.08984e-05
2.08984e-05
2.08984e-05
2.08984e-05
2.08984e-05
2.08984e-05
2.08984e-05
2.08984e-05
2.09229e-05
2.08984e-05
2.09229e-05
2.09229e-05
2.09229e-05
2.09229e-05
2.09229e-05
2.09229e-05
2.09473e-05
2.09473e-05
2.09473e-05
2.09473e-05
2.09961e-05
2.09961e-05
2.09961e-05
2.09961e-05
2.09961e-05
2.10205e-05
2.10205e-05
2.10205e-05
2.10449e-05
2.10693e-05
2.10693e-05
2.10693e-05
2.10937e-05
2.11182e-05
2.11182e-05
2.11426e-05
2.1167e-05
2.11914e-05
2.11914e-05
2.12158e-05
2.12402e-05
2.12646e-05
2.12891e-05
2.12891e-05
2.13379e-05
2.13623e-05
2.13623e-05
2.13867e-05
2.14355e-05
2.146e-05
2.14844e-05
2.14844e-05
2.15332e-05
2.15576e-05
2.1582e-05
2.16064e-05
2.16553e-05
2.16797e-05
2.17041e-05
2.17285e-05
2.17529e-05
2.18018e-05
2.18262e-05
2.18506e-05
2.1875e-05
2.19238e-05
2.19482e-05
2.19727e-05
2.19971e-05
2.20459e-05
2.20459e-05
2.20703e-05
2.21191e-05
2.2168e-05
2.2168e-05
2.22168e-05
2.22168e-05
2.22656e-05
2.23145e-05
2.23145e-05
2.23389e-05
2.23877e-05
2.24121e-05
2.24365e-05
2.24609e-05
2.25098e-05
2.25342e-05
2.25586e-05
2.2583e-05
2.26074e-05
2.26318e-05
2.26562e-05
2.26807e-05
2.27295e-05
2.27295e-05
2.27539e-05
2.27783e-05
2.28271e-05
2.28271e-05
2.28516e-05
2.2876e-05
2.29004e-05
2.29248e-05
2.29492e-05
2.29736e-05
2.2998e-05
2.30225e-05
2.30469e-05
2.30469e-05
2.30713e-05
2.30957e-05
2.30957e-05
2.31201e-05
2.31689e-05
2.31445e-05
2.31689e-05
2.32178e-05
2.32422e-05
2.32666e-05
2.32666e-05
2.3291e-05
2.33154e-05
2.33154e-05
2.33398e-05
2.33643e-05
2.33887e-05
2.34131e-05
2.34375e-05
2.34375e-05
2.34619e-05
2.34863e-05
2.35107e-05
2.35107e-05
2.35352e-05
2.35352e-05
2.35596e-05
2.35596e-05
2.36084e-05
2.36084e-05
2.36084e-05
2.36328e-05
2.36572e-05
2.36572e-05
2.36816e-05
2.37061e-05
2.37305e-05
2.37305e-05
2.37305e-05
2.37549e-05
2.37793e-05
2.37793e-05
2.38037e-05
2.38037e-05
2.38281e-05
2.38525e-05
2.38525e-05
2.38525e-05
2.39014e-05
2.39014e-05
2.39258e-05
2.39502e-05
2.39746e-05
2.39746e-05
2.3999e-05
2.40234e-05
2.40479e-05
2.40479e-05
2.40723e-05
2.40967e-05
2.41211e-05
2.41211e-05
2.41455e-05
2.41455e-05
2.41943e-05
2.41943e-05
2.42187e-05
2.42187e-05
2.42676e-05
2.42676e-05
2.42676e-05
2.4292e-05
2.43408e-05
2.43408e-05
2.43652e-05
2.43652e-05
2.43896e-05
2.43896e-05
2.44141e-05
2.44385e-05
2.44629e-05
2.44629e-05
2.44873e-05
2.44873e-05
2.45117e-05
2.45117e-05
2.45361e-05
2.45361e-05
2.4585e-05
2.4585e-05
2.4585e-05
2.46094e-05
2.46094e-05
2.46094e-05
2.46338e-05
2.46582e-05
2.46826e-05
2.46826e-05
2.4707e-05
2.4707e-05
2.47559e-05
2.47559e-05
2.47559e-05
2.47803e-05
2.48047e-05
2.47803e-05
2.48047e-05
2.48047e-05
2.48291e-05
2.48291e-05
2.48291e-05
2.48535e-05
2.48535e-05
2.48535e-05
2.48779e-05
2.48779e-05
2.49023e-05
2.48779e-05
2.49023e-05
2.49023e-05
2.49023e-05
2.49023e-05
2.49023e-05
2.49023e-05
2.49023e-05
2.49023e-05
2.49023e-05
2.49023e-05
2.49023e-05
2.49023e-05
2.49023e-05
2.49023e-05
2.49023e-05
2.49023e-05
2.49023e-05
2.49023e-05
2.49023e-05
2.49023e-05
2.49023e-05
2.49023e-05
2.49023e-05
2.49023e-05
2.49023e-05
2.49023e-05
2.49023e-05
2.49023e-05
2.49023e-05
2.49023e-05
2.49023e-05
2.49023e-05
2.49023e-05
2.49023e-05
2.49023e-05
2.49023e-05
2.49023e-05
2.49023e-05
2.49023e-05
2.49023e-05
2.49023e-05
2.49023e-05
2.49023e-05
2.49023e-05
2.49023e-05
2.49023e-05
2.49023e-05
2.49023e-05
2.49023e-05
2.49023e-05
2.49023e-05
2.49023e-05
2.49023e-05
2.49023e-05
2.49023e-05
2.49023e-05
2.49023e-05
2.49023e-05
2.49023e-05
2.49023e-05
2.49023e-05
2.49023e-05
2.49023e-05
2.49023e-05
2.49023e-05
2.49023e-05
2.49023e-05
2.49023e-05
2.49023e-05
2.49023e-05
2.49023e-05
2.49023e-05
2.49023e-05
2.49023e-05
2.49023e-05
2.49023e-05
2.49023e-05
2.49023e-05
2.49023e-05
2.49023e-05
2.49023e-05
2.49023e-05
2.49023e-05
2.49023e-05
2.49023e-05
2.49023e-05
2.49023e-05
2.49023e-05
2.49023e-05
2.49023e-05
2.49023e-05
2.49023e-05
2.49023e-05
2.49023e-05
2.49023e-05
2.48779e-05
2.48779e-05
2.48779e-05
2.48779e-05
2.48535e-05
2.48535e-05
2.48535e-05
2.48535e-05
2.48291e-05
2.48291e-05
2.48291e-05
2.48291e-05
2.48047e-05
2.48047e-05
2.47803e-05
2.48047e-05
2.47803e-05
2.47803e-05
2.47803e-05
2.47803e-05
2.47559e-05
2.47559e-05
2.47559e-05
2.47559e-05
2.47314e-05
2.47314e-05
2.4707e-05
2.47314e-05
2.4707e-05
2.46826e-05
2.46826e-05
2.4707e-05
2.4707e-05
2.46582e-05
2.46582e-05
2.46582e-05
2.46582e-05
2.46338e-05
2.46338e-05
2.46582e-05
2.46338e-05
2.46094e-05
2.46094e-05
2.46094e-05
2.46094e-05
2.4585e-05
2.4585e-05
2.4585e-05
2.45605e-05
2.45605e-05
2.4585e-05
2.45605e-05
2.45605e-05
2.45361e-05
2.45605e-05
2.45361e-05
2.45117e-05
2.45117e-05
2.45117e-05
2.45117e-05
2.44873e-05
2.44873e-05
2.45117e-05
2.44873e-05
2.44873e-05
2.44873e-05
2.44873e-05
2.44629e-05
2.44385e-05
2.44629e-05
2.44629e-05
2.44385e-05
2.44141e-05
2.44385e-05
2.44385e-05
2.44141e-05
2.44141e-05
2.44141e-05
2.44385e-05
2.44141e-05
2.44141e-05
2.43896e-05
2.44141e-05
2.43896e-05
2.43896e-05
2.43896e-05
2.44141e-05
2.43896e-05
2.43652e-05
2.43896e-05
2.43896e-05
2.43652e-05
2.43652e-05
2.43652e-05
2.43896e-05
2.43652e-05
2.43652e-05
2.43652e-05
2.43896e-05
2.43652e-05
2.43652e-05
2.43652e-05
2.43896e-05
2.43652e-05
2.43652e-05
2.43652e-05
2.44141e-05
2.43896e-05
2.43896e-05
2.43896e-05
2.44141e-05
2.44141e-05
2.44141e-05
2.44141e-05
2.44385e-05
2.44141e-05
2.44141e-05
2.44141e-05
2.44629e-05
2.44385e-05
2.44385e-05
2.44385e-05
2.44873e-05
2.44873e-05
2.44629e-05
2.44873e-05
2.45117e-05
2.45117e-05
2.45117e-05
2.45117e-05
2.45361e-05
2.45605e-05
2.45361e-05
2.45361e-05
2.4585e-05
2.45605e-05
2.4585e-05
2.4585e-05
2.4585e-05
2.46094e-05
2.46338e-05
2.46094e-05
2.46338e-05
2.46582e-05
2.46582e-05
2.46582e-05
2.46582e-05
2.4707e-05
2.4707e-05
2.46826e-05
2.4707e-05
2.47314e-05
2.47559e-05
2.47559e-05
2.47559e-05
2.47803e-05
2.47803e-05
2.47803e-05
2.48047e-05
2.48047e-05
2.48047e-05
2.48047e-05
2.48047e-05
2.48535e-05
2.48291e-05
2.48291e-05
2.48535e-05
2.48779e-05
2.48535e-05
2.48779e-05
2.48779e-05
2.49023e-05
2.49023e-05
2.49023e-05
2.49023e-05
2.49023e-05
2.49023e-05
2.49023e-05
2.49023e-05
2.49023e-05
2.49023e-05
2.49023e-05
2.49023e-05
2.49023e-05
2.49023e-05
2.49023e-05
2.49023e-05
2.49023e-05
2.49023e-05
2.49023e-05
2.49023e-05
2.49023e-05
2.49023e-05
2.49023e-05
2.49023e-05
2.49023e-05
2.49023e-05
2.49023e-05
2.49023e-05
2.49023e-05
2.49023e-05
2.49023e-05
2.49023e-05
2.49023e-05
2.49023e-05
2.49023e-05
2.49023e-05
2.49023e-05
2.49023e-05
2.49023e-05
2.49023e-05
2.49023e-05
2.49023e-05
2.49023e-05
2.49023e-05
2.49023e-05
2.49023e-05
2.49023e-05
2.49023e-05
2.49023e-05
2.49023e-05
2.49023e-05
2.49023e-05
2.49023e-05
2.49023e-05
2.49023e-05
2.49023e-05
2.49023e-05
2.49023e-05
2.49023e-05
2.49023e-05
2.49023e-05
2.49023e-05
2.49023e-05
2.49023e-05
2.49023e-05
2.49023e-05
2.49023e-05
2.49023e-05
2.49023e-05
2.49023e-05
2.49023e-05
2.49023e-05
2.49023e-05
2.49023e-05
2.49023e-05
2.49023e-05
2.49023e-05
2.49023e-05
2.49023e-05
2.49023e-05
2.49023e-05
2.49023e-05
2.49023e-05
2.49023e-05
2.49023e-05
2.49023e-05
2.49023e-05
2.49023e-05
2.49023e-05
2.49023e-05
2.49023e-05
2.49023e-05
2.49023e-05
2.49023e-05
2.49023e-05
2.49023e-05
2.49023e-05
2.49023e-05
2.49023e-05
2.49023e-05
2.49023e-05
2.49023e-05
2.49023e-05
2.49023e-05
2.49023e-05
2.49023e-05
2.49023e-05
2.49023e-05
2.49023e-05
2.49023e-05
2.49023e-05
2.49023e-05
2.49023e-05
2.49023e-05
2.49023e-05
2.49023e-05
2.49023e-05
2.49023e-05
2.49023e-05
2.49023e-05
2.49023e-05
2.49023e-05
2.49023e-05
2.49023e-05
2.49023e-05
2.49023e-05
2.49023e-05
2.49023e-05
2.49023e-05
2.49023e-05
2.49023e-05
2.49023e-05
2.49023e-05
2.49023e-05
2.49023e-05
2.49023e-05
2.49023e-05
2.49023e-05
2.49023e-05
2.49023e-05
2.49023e-05
2.49023e-05
2.49023e-05
2.49023e-05
2.49023e-05
2.49023e-05
2.49023e-05
2.49023e-05
2.49023e-05
2.49023e-05
2.49023e-05
2.49023e-05
2.49023e-05
2.49023e-05
2.49023e-05
2.49023e-05
2.49023e-05
2.49023e-05
2.49023e-05
2.49023e-05
2.49023e-05
2.49023e-05
2.49023e-05
2.49023e-05
2.49023e-05
2.49023e-05
2.49023e-05
2.49023e-05
2.49023e-05
2.49023e-05
2.49023e-05
2.49023e-05
2.49023e-05
2.49023e-05
2.49023e-05
2.49023e-05
2.49023e-05
2.49023e-05
2.49023e-05
2.49023e-05
2.49023e-05
2.49023e-05
2.49023e-05
2.49023e-05
2.49023e-05
2.49023e-05
2.49023e-05
2.49023e-05
2.49023e-05
2.49023e-05
2.49023e-05
2.49023e-05
2.49023e-05
2.49023e-05
2.49023e-05
2.49023e-05
2.49023e-05
2.49023e-05
2.49023e-05
2.49023e-05
2.49023e-05
2.49023e-05
2.49023e-05
2.49023e-05
2.49023e-05
2.49023e-05
2.49023e-05
2.49023e-05
2.49023e-05
2.49023e-05
2.49023e-05
2.49023e-05
2.49023e-05
2.49023e-05
2.49023e-05
2.49023e-05
2.49023e-05
2.49023e-05
2.49023e-05
2.49023e-05
2.49023e-05
2.49023e-05
2.49023e-05
2.49023e-05
2.49023e-05
2.49023e-05
2.49023e-05
2.49023e-05
2.49023e-05
2.49023e-05
2.49023e-05
2.49023e-05
2.49023e-05
2.49023e-05
2.49023e-05
2.49023e-05
2.49023e-05
2.49023e-05
2.48779e-05
2.49023e-05
2.49023e-05
2.49023e-05
2.48779e-05
2.48779e-05
2.49023e-05
2.48779e-05
2.48779e-05
2.48779e-05
2.49023e-05
2.48779e-05
2.48779e-05
2.48779e-05
2.48779e-05
2.48779e-05
2.48779e-05
2.48779e-05
2.48779e-05
2.48779e-05
2.48779e-05
2.48779e-05
2.48779e-05
2.48535e-05
2.48535e-05
2.48535e-05
2.48779e-05
2.48535e-05
2.48535e-05
2.48535e-05
2.48779e-05
2.48535e-05
2.48535e-05
2.48535e-05
2.48779e-05
2.48535e-05
2.48535e-05
2.48535e-05
2.48535e-05
2.48535e-05
2.48535e-05
2.48779e-05
2.48535e-05
2.48535e-05
2.48535e-05
2.48779e-05
2.48535e-05
2.48535e-05
2.48535e-05
2.48779e-05
2.48535e-05
2.48535e-05
2.48535e-05
2.48779e-05
2.48535e-05
2.48535e-05
2.48535e-05
2.48779e-05
2.48779e-05
2.48535e-05
2.48535e-05
2.48779e-05
2.48535e-05
2.48535e-05
2.48535e-05
2.48779e-05
2.48779e-05
2.48779e-05
2.48779e-05
2.48779e-05
2.48779e-05
2.48779e-05
2.48779e-05
2.49023e-05
2.48779e-05
2.48779e-05
2.48779e-05
2.49023e-05
2.48779e-05
2.48779e-05
2.48779e-05
2.49023e-05
2.48779e-05
2.48779e-05
2.48779e-05
2.49023e-05
2.48779e-05
2.48779e-05
2.48779e-05
2.49023e-05
2.48779e-05
2.48779e-05
2.48779e-05
2.49023e-05
2.48779e-05
2.48779e-05
2.48779e-05
2.49023e-05
2.49023e-05
2.48779e-05
2.48779e-05
2.49023e-05
2.49023e-05
2.48779e-05
2.48779e-05
2.49023e-05
2.48779e-05
2.49023e-05
2.49023e-05
2.49023e-05
2.49023e-05
2.49023e-05
2.49023e-05
2.49023e-05
2.49023e-05
2.49023e-05
2.49023e-05
2.49023e-05
2.49023e-05
2.49023e-05
2.49023e-05
2.49023e-05
2.49023e-05
2.49023e-05
2.49023e-05
2.49023e-05
2.49023e-05
2.49023e-05
2.49023e-05
2.49023e-05
2.49023e-05
2.49023e-05
2.49023e-05
2.49023e-05
2.49023e-05
2.49023e-05
2.49023e-05
2.49023e-05
2.48779e-05
2.49023e-05
2.49023e-05
2.49023e-05
2.48779e-05
2.48779e-05
2.48779e-05
2.49023e-05
2.49023e-05
2.48779e-05
2.49023e-05
2.49023e-05
2.48779e-05
2.48779e-05
2.48779e-05
2.49023e-05
2.48779e-05
2.48779e-05
2.48779e-05
2.49023e-05
2.48779e-05
2.48779e-05
2.48779e-05
2.48779e-05
2.48779e-05
2.48779e-05
2.48779e-05
2.49023e-05
2.48779e-05
2.48779e-05
2.48779e-05
2.49023e-05
2.48535e-05
2.48779e-05
2.48779e-05
2.48779e-05
2.48779e-05
2.48779e-05
2.48779e-05
2.48779e-05
2.48779e-05
2.48779e-05
2.48779e-05
2.48779e-05
2.48779e-05
2.48779e-05
2.48779e-05
2.48779e-05
2.48779e-05
2.48535e-05
2.48779e-05
2.48779e-05
2.48779e-05
2.48779e-05
2.48779e-05
2.48779e-05
2.48535e-05
2.48535e-05
2.48535e-05
2.48779e-05
2.48779e-05
2.48535e-05
2.48535e-05
2.48779e-05
2.48535e-05
2.48535e-05
2.48535e-05
2.48779e-05
2.48535e-05
2.48535e-05
2.48535e-05
2.48779e-05
2.48535e-05
2.48535e-05
2.48535e-05
2.48779e-05
2.48779e-05
2.48535e-05
2.48535e-05
2.48779e-05
2.48779e-05
2.48535e-05
2.48535e-05
2.48779e-05
2.48535e-05
2.48535e-05
2.48535e-05
2.48779e-05
2.48535e-05
2.48535e-05
2.48535e-05
2.48779e-05
2.48535e-05
2.48535e-05
2.48779e-05
2.48779e-05
2.48779e-05
2.48779e-05
2.48779e-05
2.48779e-05
2.48779e-05
2.48779e-05
2.48535e-05
2.48779e-05
2.48779e-05
2.48779e-05
2.48779e-05
2.48779e-05
2.48779e-05
2.48779e-05
2.48779e-05
2.48779e-05
2.49023e-05
2.48779e-05
2.48779e-05
2.48779e-05
2.49023e-05
2.48779e-05
2.48779e-05
2.49023e-05
2.49023e-05
2.48779e-05
2.48779e-05
2.49023e-05
2.49023e-05
2.49023e-05
2.49023e-05
2.49023e-05
2.49023e-05
2.49023e-05
2.49023e-05
2.49023e-05
2.49023e-05
2.49023e-05
2.49023e-05
2.49023e-05
2.49023e-05
2.49023e-05
2.49023e-05
2.49023e-05
2.49023e-05
2.49023e-05
2.49023e-05
2.49023e-05
2.49023e-05
2.49023e-05
2.49023e-05
2.49023e-05
2.49023e-05
2.49023e-05
2.49023e-05
2.49023e-05
2.49023e-05
2.49023e-05
2.49023e-05
2.49023e-05
2.49023e-05
2.49023e-05
2.49023e-05
2.49023e-05
2.49023e-05
2.49023e-05
2.49023e-05
2.49023e-05
2.49023e-05
2.49023e-05
2.49023e-05
2.49023e-05
2.49023e-05
2.49023e-05
2.49023e-05
2.49023e-05
2.49023e-05
2.49023e-05
2.49023e-05
2.49023e-05
2.49023e-05
2.49023e-05
2.49023e-05
2.49023e-05
2.49023e-05
2.49023e-05
2.49023e-05
2.49023e-05
2.49023e-05
2.49023e-05
2.49023e-05
2.49023e-05
2.49023e-05
2.49023e-05
2.49023e-05
2.49023e-05
2.49023e-05
2.49023e-05
2.49023e-05
2.49023e-05
2.49023e-05
2.49023e-05
2.49023e-05
2.49023e-05
2.49023e-05
2.49023e-05
2.49023e-05
2.49023e-05
2.49023e-05
2.49023e-05
2.49023e-05
2.49023e-05
2.49023e-05
2.49023e-05
2.49023e-05
2.49023e-05
2.49023e-05
2.49023e-05
2.49023e-05
2.49023e-05
2.49023e-05
2.49023e-05
2.49023e-05
2.49023e-05
2.49023e-05
2.49023e-05
2.49023e-05
2.49023e-05
2.49023e-05
2.49023e-05
2.49023e-05
2.49023e-05
2.49023e-05
2.49023e-05
2.49023e-05
2.49023e-05
2.49023e-05
2.49023e-05
2.49023e-05
2.49023e-05
2.49023e-05
2.49023e-05
2.49023e-05
2.49023e-05
2.49023e-05
2.49023e-05
2.49023e-05
2.49023e-05
2.49023e-05
2.49023e-05
2.49023e-05
2.49023e-05
2.49023e-05
2.49023e-05
2.48779e-05
2.48779e-05
2.49023e-05
2.48779e-05
2.48779e-05
2.48779e-05
2.49023e-05
2.49023e-05
2.48779e-05
2.48779e-05
2.49023e-05
2.48779e-05
2.48535e-05
2.48779e-05
2.48779e-05
2.48779e-05
2.48779e-05
2.48779e-05
2.48779e-05
2.48779e-05
2.48779e-05
2.48779e-05
2.48779e-05
2.48779e-05
2.48535e-05
2.48779e-05
2.48779e-05
2.48779e-05
2.48535e-05
2.48535e-05
2.48779e-05
2.48535e-05
2.48535e-05
2.48535e-05
2.48779e-05
2.48535e-05
2.48535e-05
2.48535e-05
2.48779e-05
2.48535e-05
2.48535e-05
2.48535e-05
2.48535e-05
2.48535e-05
2.48535e-05
2.48535e-05
2.48535e-05
2.48291e-05
2.48291e-05
2.48291e-05
2.48291e-05
2.48291e-05
2.48291e-05
2.48291e-05
2.48291e-05
2.48291e-05
2.48291e-05
2.48291e-05
2.48047e-05
2.48047e-05
2.48047e-05
2.48291e-05
2.48047e-05
2.48047e-05
2.47803e-05
2.48047e-05
2.48047e-05
2.48047e-05
2.47803e-05
2.48047e-05
2.47803e-05
2.47803e-05
2.47559e-05
2.47803e-05
2.47559e-05
2.47559e-05
2.47559e-05
2.47559e-05
2.47559e-05
2.47314e-05
2.47314e-05
2.47559e-05
2.47314e-05
2.47314e-05
2.4707e-05
2.47314e-05
2.4707e-05
2.4707e-05
2.46826e-05
2.47314e-05
2.46826e-05
2.4707e-05
2.46826e-05
2.4707e-05
2.46826e-05
2.46826e-05
2.46826e-05
2.4707e-05
2.46826e-05
2.46826e-05
2.46826e-05
2.4707e-05
2.46826e-05
2.46582e-05
2.46582e-05
2.46826e-05
2.46826e-05
2.46582e-05
2.46582e-05
2.46826e-05
2.46826e-05
2.46826e-05
2.46582e-05
2.46826e-05
2.46826e-05
2.46826e-05
2.46582e-05
2.46582e-05
2.46826e-05
2.46826e-05
2.46582e-05
2.46826e-05
2.46826e-05
2.46582e-05
2.46826e-05
2.46582e-05
2.46826e-05
2.46826e-05
2.46826e-05
2.46826e-05
2.46826e-05
2.46582e-05
2.46582e-05
2.46826e-05
2.46826e-05
2.46582e-05
2.46826e-05
2.46826e-05
2.46826e-05
2.46826e-05
2.46582e-05
2.46582e-05
2.46826e-05
2.46582e-05
2.46582e-05
2.46826e-05
2.46826e-05
2.46582e-05
2.46582e-05
2.46582e-05
2.46826e-05
2.46826e-05
2.46582e-05
2.46582e-05
2.46826e-05
2.46582e-05
2.46582e-05
2.46582e-05
2.46826e-05
2.46582e-05
2.46582e-05
2.46826e-05
2.46826e-05
2.46826e-05
2.46582e-05
2.46582e-05
2.46826e-05
2.46582e-05
2.46582e-05
2.46582e-05
2.46826e-05
2.46582e-05
2.46582e-05
2.46582e-05
2.46826e-05
2.46826e-05
2.46582e-05
2.46582e-05
2.46826e-05
2.46826e-05
2.46582e-05
2.46582e-05
2.46826e-05
2.46582e-05
2.46826e-05
2.46582e-05
2.46826e-05
2.46582e-05
2.46582e-05
2.46826e-05
2.46826e-05
2.46582e-05
2.46582e-05
2.46338e-05
2.46582e-05
2.46338e-05
2.46338e-05
2.46338e-05
2.46582e-05
2.46338e-05
2.46338e-05
2.46338e-05
2.46582e-05
2.46338e-05
2.46338e-05
2.46338e-05
2.46582e-05
2.46338e-05
2.46094e-05
2.46094e-05
2.46338e-05
2.46338e-05
2.46338e-05
2.46094e-05
2.46338e-05
2.46094e-05
2.46094e-05
2.46338e-05
2.46338e-05
2.46094e-05
2.46094e-05
2.46094e-05
2.46338e-05
2.46094e-05
2.46094e-05
2.46094e-05
2.46338e-05
2.46094e-05
2.46094e-05
2.46094e-05
2.46094e-05
2.4585e-05
2.46094e-05
2.46094e-05
2.46094e-05
2.4585e-05
2.4585e-05
2.4585e-05
2.4585e-05
2.4585e-05
2.45605e-05
2.45605e-05
2.4585e-05
2.45605e-05
2.45605e-05
2.45605e-05
2.45605e-05
2.45605e-05
2.45605e-05
2.45361e-05
2.45605e-05
2.45361e-05
2.45361e-05
2.45361e-05
2.45605e-05
2.45361e-05
2.45361e-05
2.45361e-05
2.45361e-05
2.45361e-05
2.45361e-05
2.45117e-05
2.45361e-05
2.45117e-05
2.45117e-05
2.45117e-05
2.45361e-05
2.45117e-05
2.45117e-05
2.45117e-05
2.45117e-05
2.45361e-05
2.44873e-05
2.44873e-05
2.45117e-05
2.44873e-05
2.45117e-05
2.44873e-05
2.45117e-05
2.45117e-05
2.45117e-05
2.44873e-05
2.45117e-05
2.44873e-05
2.44873e-05
2.44873e-05
2.44873e-05
2.44873e-05
2.44873e-05
2.44873e-05
2.44873e-05
2.44873e-05
2.44629e-05
2.44629e-05
2.44873e-05
2.44873e-05
2.44629e-05
2.44873e-05
2.44873e-05
2.44629e-05
2.44629e-05
2.44629e-05
2.44629e-05
2.44629e-05
2.44385e-05
2.44385e-05
2.44629e-05
2.44629e-05
2.44385e-05
2.44629e-05
2.44629e-05
2.44385e-05
2.44385e-05
2.44385e-05
2.44629e-05
2.44385e-05
2.44385e-05
2.44385e-05
2.44629e-05
2.44385e-05
2.44385e-05
2.44385e-05
2.44385e-05
2.44385e-05
2.44385e-05
2.44385e-05
2.44385e-05
2.44141e-05
2.44385e-05
2.44141e-05
2.44385e-05
2.44385e-05
2.44141e-05
2.44141e-05
2.44141e-05
2.43896e-05
2.43896e-05
2.43896e-05
2.44141e-05
2.44141e-05
2.43652e-05
2.43652e-05
2.43652e-05
2.43896e-05
2.43652e-05
2.43652e-05
2.43652e-05
2.43652e-05
2.43652e-05
2.43652e-05
2.43652e-05
2.43652e-05
2.43408e-05
2.43408e-05
2.43408e-05
2.43652e-05
2.43408e-05
2.43652e-05
2.43408e-05
2.43652e-05
2.43408e-05
2.43408e-05
2.43408e-05
2.43652e-05
2.43408e-05
2.43408e-05
2.43408e-05
2.43408e-05
2.43164e-05
2.43408e-05
2.43408e-05
2.43164e-05
2.43164e-05
2.43164e-05
2.43408e-05
2.43164e-05
2.43164e-05
2.43164e-05
2.43408e-05
2.43164e-05
2.43164e-05
2.43164e-05
2.43164e-05
2.43164e-05
2.43164e-05
2.43164e-05
2.43164e-05
2.4292e-05
2.4292e-05
2.4292e-05
2.43164e-05
2.4292e-05
2.4292e-05
2.4292e-05
2.43164e-05
2.4292e-05
2.4292e-05
2.4292e-05
2.43164e-05
2.4292e-05
2.4292e-05
2.4292e-05
2.4292e-05
2.4292e-05
2.4292e-05
2.4292e-05
2.4292e-05
2.42676e-05
2.42676e-05
2.4292e-05
2.4292e-05
2.4292e-05
2.4292e-05
2.4292e-05
2.4292e-05
2.42676e-05
2.42676e-05
2.42676e-05
2.4292e-05
2.42676e-05
2.42676e-05
2.42676e-05
2.42676e-05
2.42676e-05
2.42676e-05
2.42676e-05
2.42676e-05
2.42432e-05
2.42676e-05
2.42432e-05
2.42676e-05
2.42432e-05
2.42432e-05
2.42432e-05
2.42432e-05
2.42432e-05
2.42432e-05
2.42432e-05
2.42676e-05
2.42432e-05
2.42432e-05
2.42432e-05
2.42432e-05
2.42432e-05
2.42432e-05
2.42432e-05
2.42432e-05
2.42432e-05
2.42187e-05
2.42187e-05
2.42187e-05
2.42187e-05
2.42187e-05
2.42432e-05
2.42187e-05
2.42187e-05
2.42187e-05
2.42432e-05
2.42187e-05
2.42187e-05
2.41943e-05
2.42432e-05
2.42187e-05
2.42187e-05
2.42187e-05
2.42187e-05
2.42187e-05
2.42187e-05
2.41943e-05
2.42187e-05
2.42187e-05
2.42187e-05
2.41943e-05
2.42187e-05
2.41943e-05
2.41943e-05
2.41943e-05
2.42187e-05
2.41943e-05
2.41943e-05
2.41943e-05
2.42187e-05
2.41943e-05
2.41943e-05
2.41943e-05
2.42187e-05
2.41943e-05
2.41943e-05
2.41943e-05
2.42187e-05
2.41943e-05
2.42187e-05
2.41943e-05
2.41943e-05
2.42187e-05
2.42187e-05
2.41943e-05
2.42187e-05
2.42187e-05
2.41943e-05
2.41943e-05
2.41943e-05
2.42187e-05
2.41943e-05
2.41943e-05
2.41943e-05
2.42187e-05
2.42187e-05
2.42187e-05
2.42187e-05
2.42187e-05
2.42187e-05
2.42187e-05
2.42187e-05
2.42187e-05
2.42187e-05
2.42187e-05
2.42187e-05
2.42432e-05
2.42187e-05
2.42187e-05
2.42187e-05
2.42432e-05
2.42187e-05
2.42187e-05
2.42187e-05
2.42432e-05
2.42187e-05
2.42187e-05
2.42187e-05
2.42187e-05
2.42187e-05
2.42187e-05
2.42187e-05
2.42432e-05
2.42187e-05
2.42187e-05
2.42187e-05
2.42187e-05
2.42187e-05
2.42187e-05
2.42187e-05
2.42187e-05
2.42187e-05
2.42187e-05
2.42187e-05
2.42187e-05
2.42187e-05
2.42187e-05
2.42187e-05
2.42187e-05
2.42187e-05
2.41943e-05
2.41943e-05
2.42187e-05
2.41943e-05
2.41943e-05
2.41943e-05
2.42187e-05
2.42187e-05
2.41943e-05
2.41943e-05
2.41943e-05
2.42187e-05
2.41943e-05
2.41699e-05
2.41699e-05
2.41699e-05
2.41699e-05
2.41699e-05
2.41455e-05
2.41699e-05
2.41455e-05
2.41211e-05
2.41211e-05
2.41211e-05
2.41211e-05
2.41211e-05
2.40967e-05
2.41211e-05
2.40967e-05
2.40967e-05
2.40967e-05
2.40967e-05
2.40967e-05
2.40967e-05
2.40967e-05
2.41211e-05
2.40967e-05
2.40967e-05
2.40967e-05
2.40967e-05
2.40967e-05
2.40967e-05
2.40967e-05
2.40967e-05
2.40967e-05
2.40723e-05
2.40967e-05
2.40967e-05
2.40723e-05
2.40723e-05
2.40723e-05
2.40723e-05
2.40723e-05
2.40723e-05
2.40479e-05
2.40723e-05
2.40723e-05
2.40479e-05
2.40723e-05
2.40479e-05
2.40479e-05
2.40479e-05
2.40479e-05
2.40479e-05
2.40479e-05
2.40479e-05
2.40479e-05
2.40479e-05
2.40234e-05
2.40234e-05
2.40234e-05
2.40234e-05
2.40234e-05
2.40234e-05
2.40234e-05
2.40234e-05
2.40234e-05
2.40234e-05
2.40234e-05
2.3999e-05
2.3999e-05
2.3999e-05
2.40234e-05
2.3999e-05
2.3999e-05
2.40234e-05
2.40234e-05
2.3999e-05
2.3999e-05
2.3999e-05
2.40234e-05
2.40234e-05
2.3999e-05
2.3999e-05
2.3999e-05
2.40234e-05
2.3999e-05
2.3999e-05
2.3999e-05
2.40234e-05
2.3999e-05
2.40234e-05
2.3999e-05
2.40234e-05
2.40234e-05
2.3999e-05
2.3999e-05
2.40234e-05
2.3999e-05
2.40234e-05
2.40234e-05
2.40234e-05
2.3999e-05
2.3999e-05
2.40234e-05
2.40234e-05
2.3999e-05
2.3999e-05
2.3999e-05
2.40234e-05
2.3999e-05
2.3999e-05
2.39746e-05
2.39746e-05
2.39746e-05
2.39502e-05
2.39502e-05
2.39258e-05
2.39014e-05
2.3877e-05
2.3877e-05
2.38525e-05
2.38525e-05
2.38281e-05
2.38037e-05
2.38037e-05
2.38037e-05
2.37793e-05
2.37793e-05
2.37793e-05
2.37793e-05
2.37793e-05
2.37549e-05
2.37793e-05
2.37793e-05
2.37793e-05
2.37793e-05
2.37793e-05
2.38037e-05
2.37793e-05
2.38037e-05
2.38037e-05
2.38281e-05
2.38281e-05
2.38037e-05
2.38037e-05
2.38281e-05
2.38281e-05
2.38037e-05
2.38281e-05
2.38281e-05
2.38037e-05
2.38037e-05
2.38037e-05
2.38281e-05
2.38281e-05
2.38037e-05
2.38037e-05
2.38281e-05
2.38037e-05
2.38037e-05
2.38037e-05
2.38037e-05
2.38037e-05
2.37793e-05
2.37793e-05
2.37793e-05
2.37793e-05
2.37793e-05
2.37793e-05
2.37793e-05
2.37793e-05
2.37793e-05
2.37793e-05
2.37793e-05
2.37793e-05
2.37549e-05
2.37793e-05
2.37793e-05
2.37549e-05
2.37549e-05
2.37549e-05
2.37793e-05
2.37549e-05
2.37549e-05
2.37549e-05
2.37549e-05
2.37549e-05
2.37549e-05
2.37549e-05
2.37549e-05
2.37549e-05
2.37549e-05
2.37549e-05
2.37549e-05
2.37549e-05
2.37793e-05
2.37549e-05
2.37549e-05
2.37305e-05
2.37793e-05
2.37549e-05
2.37549e-05
2.37549e-05
2.37793e-05
2.37549e-05
2.37793e-05
2.37793e-05
2.37793e-05
2.38037e-05
2.37793e-05
2.37793e-05
2.37793e-05
2.37793e-05
2.37793e-05
2.37793e-05
2.37793e-05
2.37793e-05
2.37549e-05
2.37793e-05
2.37793e-05
2.37549e-05
2.37549e-05
2.37549e-05
2.37793e-05
2.37549e-05
2.37549e-05
2.37549e-05
2.37549e-05
2.37549e-05
2.37549e-05
2.37549e-05
2.37549e-05
2.37305e-05
2.37305e-05
2.37305e-05
2.37305e-05
2.37061e-05
2.37061e-05
2.37305e-05
2.37305e-05
2.37061e-05
2.37061e-05
2.36816e-05
2.36816e-05
2.36816e-05
2.36572e-05
2.36572e-05
2.36572e-05
2.36328e-05
2.36328e-05
2.36328e-05
2.36328e-05
2.36328e-05
2.36328e-05
2.36084e-05
2.36328e-05
2.36084e-05
2.36084e-05
2.36084e-05
2.36084e-05
2.3584e-05
2.3584e-05
2.3584e-05
2.36084e-05
2.3584e-05
2.3584e-05
2.35596e-05
2.3584e-05
2.35596e-05
2.35352e-05
2.35352e-05
2.35352e-05
2.35352e-05
2.35107e-05
2.35107e-05
2.35107e-05
2.35107e-05
2.35107e-05
2.34863e-05
2.35107e-05
2.35107e-05
2.34863e-05
2.35107e-05
2.35107e-05
2.35107e-05
2.34863e-05
2.35107e-05
2.35107e-05
2.35107e-05
2.35107e-05
2.35107e-05
2.35107e-05
2.35107e-05
2.35107e-05
2.35107e-05
2.35107e-05
2.35107e-05
2.35107e-05
2.35352e-05
2.35107e-05
2.35107e-05
2.35107e-05
2.35352e-05
2.35107e-05
2.35107e-05
2.35107e-05
2.35352e-05
2.35107e-05
2.35107e-05
2.35107e-05
2.35352e-05
2.35107e-05
2.35352e-05
2.35107e-05
2.35107e-05
2.35352e-05
2.35107e-05
2.35107e-05
2.35107e-05
2.35352e-05
2.35107e-05
2.35107e-05
2.35107e-05
2.35352e-05
2.35107e-05
2.35107e-05
2.35107e-05
2.35352e-05
2.35107e-05
2.35107e-05
2.35107e-05
2.35352e-05
2.35107e-05
2.35107e-05
2.35107e-05
2.35352e-05
2.35107e-05
2.34863e-05
2.35107e-05
2.35107e-05
2.35107e-05
2.35107e-05
2.35107e-05
2.35352e-05
2.35107e-05
2.35107e-05
2.35107e-05
2.35107e-05
2.34863e-05
2.35107e-05
2.34863e-05
2.35107e-05
2.34863e-05
2.34863e-05
2.34863e-05
2.35107e-05
2.34863e-05
2.34863e-05
2.34863e-05
2.34863e-05
2.34863e-05
2.34619e-05
2.34863e-05
2.34863e-05
2.34863e-05
2.34619e-05
2.34863e-05
2.34863e-05
2.34619e-05
2.34619e-05
2.34619e-05
2.34863e-05
2.34619e-05
2.34619e-05
2.34619e-05
2.34619e-05
2.34619e-05
2.34375e-05
2.34619e-05
2.34619e-05
2.34375e-05
2.34375e-05
2.34619e-05
2.34619e-05
2.34619e-05
2.34375e-05
2.34375e-05
2.34375e-05
2.34375e-05
2.34375e-05
2.34375e-05
2.34375e-05
2.34375e-05
2.34375e-05
2.34375e-05
2.34375e-05
2.34375e-05
2.34375e-05
2.34375e-05
2.34375e-05
2.34375e-05
2.34375e-05
2.34375e-05
2.34375e-05
2.34375e-05
2.34131e-05
2.34131e-05
2.34375e-05
2.34375e-05
2.34131e-05
2.34131e-05
2.34131e-05
2.34131e-05
2.34131e-05
2.33887e-05
2.34131e-05
2.34131e-05
2.34131e-05
2.33887e-05
2.33887e-05
2.33887e-05
2.33887e-05
2.33887e-05
2.33643e-05
2.33887e-05
2.33887e-05
2.33887e-05
2.33887e-05
2.33887e-05
2.33887e-05
2.33887e-05
2.33643e-05
2.33643e-05
2.33643e-05
2.33643e-05
2.33887e-05
2.33887e-05
2.33643e-05
2.33643e-05
2.33643e-05
2.33887e-05
2.33643e-05
2.33643e-05
2.33887e-05
2.33643e-05
2.33643e-05
2.33643e-05
2.33643e-05
2.33643e-05
2.33398e-05
2.33398e-05
2.33643e-05
2.33398e-05
2.33398e-05
2.33398e-05
2.33643e-05
2.33398e-05
2.33398e-05
2.33398e-05
2.33398e-05
2.33398e-05
2.33398e-05
2.33398e-05
2.33398e-05
2.33398e-05
2.33398e-05
2.33398e-05
2.33398e-05
2.33398e-05
2.33398e-05
2.33398e-05
2.33398e-05
2.33398e-05
2.33398e-05
2.33398e-05
2.33398e-05
2.33154e-05
2.33154e-05
2.33154e-05
2.33398e-05
2.33154e-05
2.33154e-05
2.33154e-05
2.33154e-05
2.33154e-05
2.33154e-05
2.33154e-05
2.33154e-05
2.33154e-05
2.33154e-05
2.33154e-05
2.33154e-05
2.33154e-05
2.33154e-05
2.33154e-05
2.33154e-05
2.33154e-05
2.3291e-05
2.33154e-05
2.33154e-05
2.3291e-05
2.3291e-05
2.3291e-05
2.33154e-05
2.3291e-05
2.3291e-05
2.3291e-05
2.33154e-05
2.3291e-05
2.3291e-05
2.3291e-05
2.33154e-05
2.3291e-05
2.3291e-05
2.3291e-05
2.3291e-05
2.3291e-05
2.3291e-05
2.3291e-05
2.3291e-05
2.3291e-05
2.32666e-05
2.32666e-05
2.3291e-05
2.3291e-05
2.32666e-05
2.32666e-05
2.3291e-05
2.3291e-05
2.32666e-05
2.32666e-05
2.3291e-05
2.32666e-05
2.32666e-05
2.3291e-05
2.3291e-05
2.32666e-05
2.32666e-05
2.3291e-05
2.3291e-05
2.32666e-05
2.32666e-05
2.32666e-05
2.32666e-05
2.32666e-05
2.32666e-05
2.32666e-05
2.32666e-05
2.32666e-05
2.32666e-05
2.32666e-05
2.32666e-05
2.32666e-05
2.32666e-05
2.32666e-05
2.32666e-05
2.32666e-05
2.32666e-05
2.32666e-05
2.32666e-05
2.32666e-05
2.32422e-05
2.32666e-05
2.32666e-05
2.32422e-05
2.32422e-05
2.32422e-05
2.32666e-05
2.32422e-05
2.32422e-05
2.32422e-05
2.32666e-05
2.32422e-05
2.32422e-05
2.32422e-05
2.32422e-05
2.32422e-05
2.32422e-05
2.32422e-05
2.32422e-05
2.32422e-05
2.32422e-05
2.32422e-05
2.32422e-05
2.32178e-05
2.32178e-05
2.32422e-05
2.32422e-05
2.32178e-05
2.32178e-05
2.32178e-05
2.32422e-05
2.32178e-05
2.32178e-05
2.32178e-05
2.32178e-05
2.32178e-05
2.32178e-05
2.32178e-05
2.32178e-05
2.32178e-05
2.31934e-05
2.32178e-05
2.32178e-05
2.32178e-05
2.32178e-05
2.31934e-05
2.32178e-05
2.31934e-05
2.31934e-05
2.31934e-05
2.31934e-05
2.31934e-05
2.31934e-05
2.31934e-05
2.31934e-05
2.31689e-05
2.31934e-05
2.31934e-05
2.31934e-05
2.31934e-05
2.31689e-05
2.31689e-05
2.31689e-05
2.31689e-05
2.31689e-05
2.31689e-05
2.31689e-05
2.31689e-05
2.31445e-05
2.31445e-05
2.31689e-05
2.31445e-05
2.31445e-05
2.31689e-05
2.31689e-05
2.31445e-05
2.31445e-05
2.31445e-05
2.31445e-05
2.31445e-05
2.31445e-05
2.31445e-05
2.31445e-05
2.31445e-05
2.31201e-05
2.31201e-05
2.31445e-05
2.31201e-05
2.31201e-05
2.31445e-05
2.31445e-05
2.31201e-05
2.31201e-05
2.31201e-05
2.31445e-05
2.31201e-05
2.31201e-05
2.31201e-05
2.31201e-05
2.31201e-05
2.31201e-05
2.31201e-05
2.31201e-05
2.31201e-05
2.31201e-05
2.31201e-05
2.31201e-05
2.31201e-05
2.31201e-05
2.31201e-05
2.31201e-05
2.31201e-05
2.31201e-05
2.31201e-05
2.31445e-05
2.31201e-05
2.31201e-05
2.31201e-05
2.31201e-05
2.31201e-05
2.31201e-05
2.31445e-05
2.31445e-05
2.31445e-05
2.31445e-05
2.31445e-05
2.31445e-05
2.31445e-05
2.31445e-05
2.31445e-05
2.31445e-05
2.31445e-05
2.31445e-05
2.31689e-05
2.31689e-05
2.31689e-05
2.31445e-05
2.31689e-05
2.31689e-05
2.31445e-05
2.31445e-05
2.31445e-05
2.31445e-05
2.31445e-05
2.31445e-05
2.31689e-05
2.31445e-05
2.31689e-05
2.31689e-05
2.31934e-05
2.31689e-05
2.31934e-05
2.31934e-05
2.32178e-05
2.32178e-05
2.32178e-05
2.32178e-05
2.32422e-05
2.32422e-05
2.32422e-05
2.32422e-05
2.32666e-05
2.32666e-05
2.32666e-05
2.3291e-05
2.33154e-05
2.3291e-05
2.3291e-05
2.3291e-05
2.33154e-05
2.33154e-05
2.33154e-05
2.33154e-05
2.33398e-05
2.33154e-05
2.33398e-05
2.33398e-05
2.33398e-05
2.33154e-05
2.33398e-05
2.33398e-05
2.33398e-05
2.33398e-05
2.33398e-05
2.33398e-05
2.33398e-05
2.33398e-05
2.33398e-05
2.33398e-05
2.33398e-05
2.33398e-05
2.33398e-05
2.33154e-05
2.33154e-05
2.33154e-05
2.33154e-05
2.33154e-05
2.33154e-05
2.33154e-05
2.33154e-05
2.33154e-05
2.33154e-05
2.33154e-05
2.3291e-05
2.33154e-05
2.33154e-05
2.3291e-05
2.3291e-05
2.3291e-05
2.33154e-05
2.3291e-05
2.3291e-05
2.3291e-05
2.3291e-05
2.3291e-05
2.32666e-05
2.3291e-05
2.3291e-05
2.32666e-05
2.32666e-05
2.32666e-05
2.3291e-05
2.32666e-05
2.32666e-05
2.32666e-05
2.32666e-05
2.32666e-05
2.32666e-05
2.32422e-05
2.32666e-05
2.32422e-05
2.32422e-05
2.32422e-05
2.32666e-05
2.32422e-05
2.32422e-05
2.32422e-05
2.32422e-05
2.32422e-05
2.32422e-05
2.32422e-05
2.32422e-05
2.32422e-05
2.32422e-05
2.32178e-05
2.32178e-05
2.32178e-05
2.32178e-05
2.32178e-05
2.32178e-05
2.32178e-05
2.31934e-05
2.31934e-05
2.32178e-05
2.31934e-05
2.31934e-05
2.31934e-05
2.31934e-05
2.31934e-05
2.31934e-05
2.31689e-05
2.31934e-05
2.31689e-05
2.31689e-05
2.31689e-05
2.31689e-05
2.31934e-05
2.31689e-05
2.31689e-05
2.31445e-05
2.31445e-05
2.31445e-05
2.31445e-05
2.31445e-05
2.31445e-05
2.31445e-05
2.31445e-05
2.31445e-05
2.31445e-05
2.31445e-05
2.31445e-05
2.31445e-05
2.31445e-05
2.31201e-05
2.31201e-05
2.31201e-05
2.31201e-05
2.31201e-05
2.31201e-05
2.31201e-05
2.31201e-05
2.31201e-05
2.30957e-05
2.30957e-05
2.30957e-05
2.30957e-05
2.30713e-05
2.30957e-05
2.30713e-05
2.30713e-05
2.30713e-05
2.30713e-05
2.30713e-05
2.30713e-05
2.30469e-05
2.30469e-05
2.30469e-05
2.30469e-05
2.30469e-05
2.30225e-05
2.30469e-05
2.30225e-05
2.30225e-05
2.30225e-05
2.30225e-05
2.30225e-05
2.30225e-05
2.2998e-05
2.30225e-05
2.2998e-05
2.2998e-05
2.2998e-05
2.2998e-05
2.2998e-05
2.2998e-05
2.2998e-05
2.2998e-05
2.29736e-05
2.29736e-05
2.29736e-05
2.29492e-05
2.29492e-05
2.29492e-05
2.29492e-05
2.29492e-05
2.29492e-05
2.29492e-05
2.29492e-05
2.29492e-05
2.29248e-05
2.29492e-05
2.29248e-05
2.29248e-05
2.29248e-05
2.29248e-05
2.29248e-05
2.29248e-05
2.29004e-05
2.29248e-05
2.29004e-05
2.29004e-05
2.29004e-05
2.29004e-05
2.2876e-05
2.29004e-05
2.2876e-05
2.29004e-05
2.2876e-05
2.29004e-05
2.2876e-05
2.2876e-05
2.2876e-05
2.2876e-05
2.2876e-05
2.2876e-05
2.2876e-05
2.2876e-05
2.28516e-05
2.28516e-05
2.28516e-05
2.28516e-05
2.28516e-05
2.28271e-05
2.28271e-05
2.28516e-05
2.28271e-05
2.28271e-05
2.28271e-05
2.28271e-05
2.28271e-05
2.28271e-05
2.28027e-05
2.28271e-05
2.28027e-05
2.28027e-05
2.28027e-05
2.28271e-05
2.28027e-05
2.28027e-05
2.28027e-05
2.28027e-05
2.28027e-05
2.27783e-05
2.27783e-05
2.27783e-05
2.27783e-05
2.27783e-05
2.27783e-05
2.27783e-05
2.27539e-05
2.27539e-05
2.27539e-05
2.27539e-05
2.27539e-05
2.27539e-05
2.27539e-05
2.27539e-05
2.27539e-05
2.27539e-05
2.27295e-05
2.27295e-05
2.27295e-05
2.27295e-05
2.27051e-05
2.27295e-05
2.27295e-05
2.27051e-05
2.27051e-05
2.27051e-05
2.27051e-05
2.27051e-05
2.27051e-05
2.27051e-05
2.26807e-05
2.27051e-05
2.27051e-05
2.27051e-05
2.26807e-05
2.26807e-05
2.26807e-05
2.26807e-05
2.26807e-05
2.26807e-05
2.26807e-05
2.26807e-05
2.26562e-05
2.26562e-05
2.26562e-05
2.26562e-05
2.26562e-05
2.26562e-05
2.26562e-05
2.26562e-05
2.26562e-05
2.26562e-05
2.26562e-05
2.26562e-05
2.26562e-05
2.26318e-05
2.26318e-05
2.26562e-05
2.26318e-05
2.26318e-05
2.26318e-05
2.26318e-05
2.26318e-05
2.26318e-05
2.26318e-05
2.26318e-05
2.26318e-05
2.26318e-05
2.26318e-05
2.26318e-05
2.26318e-05
2.26318e-05
2.26318e-05
2.26318e-05
2.26318e-05
2.26318e-05
2.26318e-05
2.26318e-05
2.26318e-05
2.26318e-05
2.26318e-05
2.26318e-05
2.26318e-05
2.26318e-05
2.26318e-05
2.26318e-05
2.26318e-05
2.26318e-05
2.26318e-05
2.26318e-05
2.26318e-05
2.26318e-05
2.26562e-05
2.26562e-05
2.26562e-05
2.26318e-05
2.26562e-05
2.26562e-05
2.26318e-05
2.26318e-05
2.26318e-05
2.26318e-05
2.26318e-05
2.26318e-05
2.26318e-05
2.26318e-05
2.26318e-05
2.26318e-05
2.26562e-05
2.26562e-05
2.26562e-05
2.26562e-05
2.26562e-05
2.26562e-05
2.26562e-05
2.26562e-05
2.26562e-05
2.26562e-05
2.26562e-05
2.26562e-05
2.26562e-05
2.26807e-05
2.26562e-05
2.26562e-05
2.26562e-05
2.26562e-05
2.26562e-05
2.26562e-05
2.26562e-05
2.26562e-05
2.26562e-05
2.26562e-05
2.26807e-05
2.26807e-05
2.26562e-05
2.26562e-05
2.26807e-05
2.26807e-05
2.26562e-05
2.26807e-05
2.26807e-05
2.26807e-05
2.26807e-05
2.26807e-05
2.26807e-05
2.26807e-05
2.26562e-05
2.26807e-05
2.26807e-05
2.26562e-05
2.26807e-05
2.26807e-05
2.26807e-05
2.26807e-05
2.26807e-05
2.26807e-05
2.26807e-05
2.26807e-05
2.26807e-05
2.26807e-05
2.26807e-05
2.26562e-05
2.26562e-05
2.26562e-05
2.26562e-05
2.26562e-05
2.26562e-05
2.26318e-05
2.26562e-05
2.26318e-05
2.26318e-05
2.26318e-05
2.26562e-05
2.26318e-05
2.26318e-05
2.26318e-05
2.26318e-05
2.26318e-05
2.26318e-05
2.26074e-05
2.26074e-05
2.26074e-05
2.26074e-05
2.26074e-05
2.26074e-05
2.26074e-05
2.2583e-05
2.26074e-05
2.26074e-05
2.2583e-05
2.2583e-05
2.2583e-05
2.2583e-05
2.25586e-05
2.25586e-05
2.25586e-05
2.25586e-05
2.25586e-05
2.25342e-05
2.25586e-05
2.25586e-05
2.25342e-05
2.25342e-05
2.25098e-05
2.25098e-05
2.25098e-05
2.24854e-05
2.24854e-05
2.25098e-05
2.24854e-05
2.24854e-05
2.24854e-05
2.24854e-05
2.24854e-05
2.24609e-05
2.24854e-05
2.24854e-05
2.24609e-05
2.24609e-05
2.24609e-05
2.24609e-05
2.24609e-05
2.24365e-05
2.24609e-05
2.24609e-05
2.24609e-05
2.24365e-05
2.24365e-05
2.24365e-05
2.24121e-05
2.24365e-05
2.24365e-05
2.24365e-05
2.24121e-05
2.24121e-05
2.24121e-05
2.24121e-05
2.24121e-05
2.24121e-05
2.23877e-05
2.24121e-05
2.23877e-05
2.23877e-05
2.23633e-05
2.23877e-05
2.23633e-05
2.23633e-05
2.23633e-05
2.23633e-05
2.23633e-05
2.23633e-05
2.23633e-05
2.23633e-05
2.23389e-05
2.23389e-05
2.23389e-05
2.23389e-05
2.23633e-05
2.23389e-05
2.23389e-05
2.23389e-05
2.23389e-05
2.23389e-05
2.23145e-05
2.23389e-05
2.23389e-05
2.23389e-05
2.23145e-05
2.23145e-05
2.23145e-05
2.23145e-05
2.23145e-05
2.23145e-05
2.23145e-05
2.23145e-05
2.23145e-05
2.23145e-05
2.23389e-05
2.23145e-05
2.23145e-05
2.23145e-05
2.23145e-05
2.23145e-05
2.229e-05
2.23145e-05
2.229e-05
2.229e-05
2.229e-05
2.229e-05
2.229e-05
2.229e-05
2.22656e-05
2.229e-05
2.22656e-05
2.22656e-05
2.22656e-05
2.22656e-05
2.22656e-05
2.22412e-05
2.22412e-05
2.22412e-05
2.22168e-05
2.22168e-05
2.21924e-05
2.21924e-05
2.21924e-05
2.2168e-05
2.2168e-05
2.2168e-05
2.2168e-05
2.21436e-05
2.21436e-05
2.21436e-05
2.21191e-05
2.21191e-05
2.21191e-05
2.20947e-05
2.20947e-05
2.20703e-05
2.20703e-05
2.20703e-05
2.20703e-05
2.20703e-05
2.20703e-05
2.20459e-05
2.20459e-05
2.20459e-05
2.20459e-05
2.20459e-05
2.20215e-05
2.20215e-05
2.20215e-05
2.20215e-05
2.20215e-05
2.20215e-05
2.20215e-05
2.19971e-05
2.19971e-05
2.19971e-05
2.19971e-05
2.19971e-05
2.19727e-05
2.19727e-05
2.19971e-05
2.19971e-05
2.19727e-05
2.19727e-05
2.19727e-05
2.19971e-05
2.19727e-05
2.19971e-05
2.19727e-05
2.19971e-05
2.19971e-05
2.19971e-05
2.19971e-05
2.19971e-05
2.19971e-05
2.19971e-05
2.19971e-05
2.19971e-05
2.20215e-05
2.20215e-05
2.20215e-05
2.20215e-05
2.20215e-05
2.20215e-05
2.20215e-05
2.20215e-05
2.20215e-05
2.20215e-05
2.20215e-05
2.20459e-05
2.20459e-05
2.20459e-05
2.20459e-05
2.20459e-05
2.20459e-05
2.20459e-05
2.20459e-05
2.20459e-05
2.20459e-05
2.20459e-05
2.20459e-05
2.20459e-05
2.20459e-05
2.20459e-05
2.20459e-05
2.20459e-05
2.20459e-05
2.20459e-05
2.20459e-05
2.20459e-05
2.20459e-05
2.20459e-05
2.20215e-05
2.20215e-05
2.20215e-05
2.20215e-05
2.20215e-05
2.20215e-05
2.20215e-05
2.20215e-05
2.19971e-05
2.19971e-05
2.19971e-05
2.19727e-05
2.19727e-05
2.19727e-05
2.19727e-05
2.19727e-05
2.19727e-05
2.19727e-05
2.19482e-05
2.19482e-05
2.19238e-05
2.19238e-05
2.19238e-05
2.18994e-05
2.18994e-05
2.18994e-05
2.1875e-05
2.1875e-05
2.1875e-05
2.18506e-05
2.18506e-05
2.18262e-05
2.18262e-05
2.18262e-05
2.18018e-05
2.18018e-05
2.17773e-05
2.17773e-05
2.17773e-05
2.17773e-05
2.17529e-05
2.17529e-05
2.17529e-05
2.17529e-05
2.17285e-05
2.17285e-05
2.17285e-05
2.17285e-05
2.17041e-05
2.17041e-05
2.17041e-05
2.17041e-05
2.17041e-05
2.17041e-05
2.17285e-05
2.17285e-05
2.17285e-05
2.17529e-05
2.17529e-05
2.17529e-05
2.17773e-05
2.17773e-05
2.17773e-05
2.18018e-05
2.18018e-05
2.18018e-05
2.18018e-05
2.18262e-05
2.18262e-05
2.18262e-05
2.18506e-05
2.18506e-05
2.18506e-05
2.18506e-05
2.1875e-05
2.1875e-05
2.1875e-05
2.1875e-05
2.1875e-05
2.1875e-05
2.1875e-05
2.1875e-05
2.1875e-05
2.1875e-05
2.1875e-05
2.18994e-05
2.1875e-05
2.1875e-05
2.1875e-05
2.18994e-05
2.1875e-05
2.1875e-05
2.18994e-05
2.1875e-05
2.18994e-05
2.18994e-05
2.18994e-05
2.18994e-05
2.1875e-05
2.1875e-05
2.18994e-05
2.1875e-05
2.1875e-05
2.1875e-05
2.1875e-05
2.1875e-05
2.1875e-05
2.1875e-05
2.1875e-05
2.1875e-05
2.1875e-05
2.1875e-05
2.1875e-05
2.1875e-05
2.18506e-05
2.1875e-05
2.18506e-05
2.18506e-05
2.18506e-05
2.18262e-05
2.18262e-05
2.18262e-05
2.18262e-05
2.18262e-05
2.18018e-05
2.18018e-05
2.17773e-05
2.17773e-05
2.17773e-05
2.17529e-05
2.17529e-05
2.17529e-05
2.17285e-05
2.17285e-05
2.17041e-05
2.17041e-05
2.16797e-05
2.16797e-05
2.16797e-05
2.16553e-05
2.16553e-05
2.16553e-05
2.16309e-05
2.16309e-05
2.16064e-05
2.16064e-05
2.1582e-05
2.1582e-05
2.15576e-05
2.15576e-05
2.15576e-05
2.15576e-05
2.15576e-05
2.15576e-05
2.15332e-05
2.15332e-05
2.15332e-05
2.15332e-05
2.15088e-05
2.15332e-05
2.15332e-05
2.15088e-05
2.15088e-05
2.15088e-05
2.15088e-05
2.15088e-05
2.14844e-05
2.14844e-05
2.14844e-05
2.146e-05
2.146e-05
2.146e-05
2.146e-05
2.14355e-05
2.14355e-05
2.14355e-05
2.14355e-05
2.14355e-05
2.14355e-05
2.14111e-05
2.14355e-05
2.14355e-05
2.14355e-05
2.14355e-05
2.14355e-05
2.14355e-05
2.14355e-05
2.14355e-05
2.14355e-05
2.146e-05
2.146e-05
2.146e-05
2.146e-05
2.14844e-05
2.14844e-05
2.14844e-05
2.14844e-05
2.14844e-05
2.14844e-05
2.14844e-05
2.15088e-05
2.15088e-05
2.15088e-05
2.15088e-05
2.15088e-05
2.15088e-05
2.15088e-05
2.15332e-05
2.15332e-05
2.15332e-05
2.15332e-05
2.15332e-05
2.15332e-05
2.15332e-05
2.15332e-05
2.15332e-05
2.15332e-05
2.15332e-05
2.15332e-05
2.15332e-05
2.15332e-05
2.15332e-05
2.15332e-05
2.15332e-05
2.15332e-05
2.15576e-05
2.15332e-05
2.15332e-05
2.15576e-05
2.15576e-05
2.15576e-05
2.15332e-05
2.15332e-05
2.15332e-05
2.15576e-05
2.15576e-05
2.15576e-05
2.15332e-05
2.15332e-05
2.15576e-05
2.15332e-05
2.15332e-05
2.15332e-05
2.15576e-05
2.15576e-05
2.15576e-05
2.15332e-05
2.15332e-05
2.15332e-05
2.15332e-05
2.15332e-05
2.15332e-05
2.15332e-05
2.15332e-05
2.15332e-05
2.15332e-05
2.15088e-05
2.15088e-05
2.15088e-05
2.15332e-05
2.15088e-05
2.15088e-05
2.15088e-05
2.15088e-05
2.15088e-05
2.15088e-05
2.15088e-05
2.15088e-05
2.15088e-05
2.15088e-05
2.15088e-05
2.15088e-05
2.14844e-05
2.15088e-05
2.14844e-05
2.15088e-05
2.15088e-05
2.14844e-05
2.14844e-05
2.14844e-05
2.14844e-05
2.14844e-05
2.14844e-05
2.14844e-05
2.15088e-05
2.14844e-05
2.14844e-05
2.14844e-05
2.14844e-05
2.14844e-05
2.14844e-05
2.14844e-05
2.14844e-05
2.14844e-05
2.14844e-05
2.14844e-05
2.14844e-05
2.14844e-05
2.14844e-05
2.146e-05
2.14844e-05
2.14844e-05
2.146e-05
2.14844e-05
2.146e-05
2.14844e-05
2.146e-05
2.146e-05
2.146e-05
2.146e-05
2.146e-05
2.146e-05
2.146e-05
2.146e-05
2.146e-05
2.146e-05
2.146e-05
2.146e-05
2.146e-05
2.146e-05
2.146e-05
2.146e-05
2.146e-05
2.146e-05
2.146e-05
2.146e-05
2.146e-05
2.146e-05
2.14355e-05
2.146e-05
2.146e-05
2.146e-05
2.146e-05
2.146e-05
2.146e-05
2.146e-05
2.146e-05
2.146e-05
2.146e-05
2.146e-05
2.146e-05
2.146e-05
2.146e-05
2.146e-05
2.146e-05
2.146e-05
2.146e-05
2.146e-05
2.14844e-05
2.14844e-05
2.146e-05
2.146e-05
2.146e-05
2.146e-05
2.146e-05
2.146e-05
2.146e-05
2.146e-05
2.146e-05
2.146e-05
2.14844e-05
2.146e-05
2.146e-05
2.146e-05
2.146e-05
2.146e-05
2.146e-05
2.146e-05
2.146e-05
2.146e-05
2.146e-05
2.146e-05
2.146e-05
2.146e-05
2.146e-05
2.146e-05
2.146e-05
2.146e-05
2.146e-05
2.146e-05
2.146e-05
2.146e-05
2.146e-05
2.146e-05
2.14355e-05
2.146e-05
2.14355e-05
2.14355e-05
2.14355e-05
2.14355e-05
2.14355e-05
2.14355e-05
2.14355e-05
2.14355e-05
2.14355e-05
2.14355e-05
2.14355e-05
2.14355e-05
2.14355e-05
2.14355e-05
2.14355e-05
2.14355e-05
2.14355e-05
2.14355e-05
2.14355e-05
2.14355e-05
2.14355e-05
2.14355e-05
2.14355e-05
2.14355e-05
2.14111e-05
2.14355e-05
2.14111e-05
2.14111e-05
2.14111e-05
2.14111e-05
2.14355e-05
2.14111e-05
2.14111e-05
2.14111e-05
2.14111e-05
2.14111e-05
2.14111e-05
2.14111e-05
2.14111e-05
2.14111e-05
2.13867e-05
2.14111e-05
2.14111e-05
2.13867e-05
2.13867e-05
2.14111e-05
2.13867e-05
2.13867e-05
2.13867e-05
2.13867e-05
2.13867e-05
2.13867e-05
2.13867e-05
2.13867e-05
2.13867e-05
2.13867e-05
2.13867e-05
2.13867e-05
2.13867e-05
2.13623e-05
2.13867e-05
2.13867e-05
2.13867e-05
2.13623e-05
2.13623e-05
2.13623e-05
2.13623e-05
2.13623e-05
2.13623e-05
2.13623e-05
2.13623e-05
2.13623e-05
2.13623e-05
2.13623e-05
2.13623e-05
2.13379e-05
2.13623e-05
2.13623e-05
2.13623e-05
2.13379e-05
2.13379e-05
2.13623e-05
2.13379e-05
2.13379e-05
2.13379e-05
2.13379e-05
2.13379e-05
2.13379e-05
2.13379e-05
2.13379e-05
2.13379e-05
2.13379e-05
2.13379e-05
2.13379e-05
2.13379e-05
2.13135e-05
2.13379e-05
2.13135e-05
2.13379e-05
2.13135e-05
2.13135e-05
2.13135e-05
2.13135e-05
2.13135e-05
2.13135e-05
2.13135e-05
2.13135e-05
2.12891e-05
2.13135e-05
2.13135e-05
2.13135e-05
2.12891e-05
2.13135e-05
2.12891e-05
2.12891e-05
2.12891e-05
2.12891e-05
2.12891e-05
2.12891e-05
2.12891e-05
2.12646e-05
2.12891e-05
2.12891e-05
2.12891e-05
2.12646e-05
2.12891e-05
2.12646e-05
2.12891e-05
2.12646e-05
2.12646e-05
2.12646e-05
2.12646e-05
2.12646e-05
2.12646e-05
2.12646e-05
2.12646e-05
2.12402e-05
2.12646e-05
2.12646e-05
2.12646e-05
2.12402e-05
2.12646e-05
2.12646e-05
2.12646e-05
2.12402e-05
2.12646e-05
2.12646e-05
2.12646e-05
2.12402e-05
2.12402e-05
2.12402e-05
2.12646e-05
2.12402e-05
2.12402e-05
2.12402e-05
2.12402e-05
2.12402e-05
2.12402e-05
2.12402e-05
2.12158e-05
2.12402e-05
2.12402e-05
2.12402e-05
2.12158e-05
2.12402e-05
2.12402e-05
2.12158e-05
2.12158e-05
2.12158e-05
2.12158e-05
2.12158e-05
2.12158e-05
2.12158e-05
2.12158e-05
2.12158e-05
2.11914e-05
2.12158e-05
2.12158e-05
2.11914e-05
2.11914e-05
2.12158e-05
2.11914e-05
2.11914e-05
2.11914e-05
2.11914e-05
2.11914e-05
2.11914e-05
2.11914e-05
2.11914e-05
2.11914e-05
2.11914e-05
2.1167e-05
2.11914e-05
2.1167e-05
2.11914e-05
2.1167e-05
2.1167e-05
2.11914e-05
2.1167e-05
2.1167e-05
2.1167e-05
2.1167e-05
2.1167e-05
2.1167e-05
2.1167e-05
2.1167e-05
2.1167e-05
2.11426e-05
2.1167e-05
2.1167e-05
2.1167e-05
2.11426e-05
2.11426e-05
2.11426e-05
2.11426e-05
2.11426e-05
2.11426e-05
2.11426e-05
2.11426e-05
2.11426e-05
2.11426e-05
2.11426e-05
2.11426e-05
2.11182e-05
2.11426e-05
2.11182e-05
2.11182e-05
2.11182e-05
2.11426e-05
2.11182e-05
2.11182e-05
2.11182e-05
2.11182e-05
2.11182e-05
2.11182e-05
2.10937e-05
2.11182e-05
2.11182e-05
2.11182e-05
2.10937e-05
2.11182e-05
2.10937e-05
2.10937e-05
2.11182e-05
2.10937e-05
2.10937e-05
2.10937e-05
2.10937e-05
2.10937e-05
2.10937e-05
2.10937e-05
2.10937e-05
2.10693e-05
2.10937e-05
2.10937e-05
2.10937e-05
2.10693e-05
2.10693e-05
2.10693e-05
2.10937e-05
2.10693e-05
2.10693e-05
2.10693e-05
2.10693e-05
2.10693e-05
2.10693e-05
2.10693e-05
2.10693e-05
2.10449e-05
2.10693e-05
2.10693e-05
2.10693e-05
2.10449e-05
2.10693e-05
2.10449e-05
2.10449e-05
2.10449e-05
2.10449e-05
2.10449e-05
2.10449e-05
2.10449e-05
2.10449e-05
2.10449e-05
2.10449e-05
2.10205e-05
2.10205e-05
2.10449e-05
2.10449e-05
2.10449e-05
2.10449e-05
2.10205e-05
2.10205e-05
2.09961e-05
2.10205e-05
2.10205e-05
2.10205e-05
2.09961e-05
2.10205e-05
2.10205e-05
2.10205e-05
2.09961e-05
2.09961e-05
2.09961e-05
2.10205e-05
2.09961e-05
2.09961e-05
2.09961e-05
2.09961e-05
2.09961e-05
2.09961e-05
2.09961e-05
2.09961e-05
2.09717e-05
2.09961e-05
2.09961e-05
2.09961e-05
2.09717e-05
2.09961e-05
2.09961e-05
2.09961e-05
2.09717e-05
2.09961e-05
2.09961e-05
2.09717e-05
2.09717e-05
2.09717e-05
2.09717e-05
2.09717e-05
2.09473e-05
2.09717e-05
2.09717e-05
2.09717e-05
2.09473e-05
2.09717e-05
2.09717e-05
2.09717e-05
2.09473e-05
2.09717e-05
2.09473e-05
2.09473e-05
2.09473e-05
2.09473e-05
2.09473e-05
2.09717e-05
2.09229e-05
2.09229e-05
2.09473e-05
2.09473e-05
2.09473e-05
2.09473e-05
2.09473e-05
2.09473e-05
2.09229e-05
2.09473e-05
2.09473e-05
2.09473e-05
2.09229e-05
2.09229e-05
2.09229e-05
2.09229e-05
2.09229e-05
2.09229e-05
2.09229e-05
2.09229e-05
2.09229e-05
2.09229e-05
2.09229e-05
2.09229e-05
2.08984e-05
2.08984e-05
2.09229e-05
2.09229e-05
2.08984e-05
2.08984e-05
2.08984e-05
2.08984e-05
2.08984e-05
2.08984e-05
2.08984e-05
2.08984e-05
2.08984e-05
2.08984e-05
2.08984e-05
2.0874e-05
2.08984e-05
2.08984e-05
2.08984e-05
2.08984e-05
2.08984e-05
2.08984e-05
2.08984e-05
2.0874e-05
2.08984e-05
2.08984e-05
2.08984e-05
2.0874e-05
2.0874e-05
2.0874e-05
2.0874e-05
2.0874e-05
2.0874e-05
2.0874e-05
2.0874e-05
2.08496e-05
2.0874e-05
2.0874e-05
2.0874e-05
2.08496e-05
2.0874e-05
2.0874e-05
2.0874e-05
2.08496e-05
2.0874e-05
2.08496e-05
2.08496e-05
2.08496e-05
2.08496e-05
2.08496e-05
2.08496e-05
2.08496e-05
2.08496e-05
2.08496e-05
2.08496e-05
2.08252e-05
2.08496e-05
2.08252e-05
2.08496e-05
2.08252e-05
2.08496e-05
2.08252e-05
2.08496e-05
2.08252e-05
2.08252e-05
2.08252e-05
2.08252e-05
2.08252e-05
2.08252e-05
2.08252e-05
2.08252e-05
2.08008e-05
2.08252e-05
2.08252e-05
2.08252e-05
2.08008e-05
2.08252e-05
2.08008e-05
2.08252e-05
2.08008e-05
2.08252e-05
2.08252e-05
2.08008e-05
2.08008e-05
2.08008e-05
2.08008e-05
2.08008e-05
2.08008e-05
2.08008e-05
2.08008e-05
2.08008e-05
2.07764e-05
2.08008e-05
2.08008e-05
2.08008e-05
2.07764e-05
2.08008e-05
2.07764e-05
2.07764e-05
2.07764e-05
2.08008e-05
2.07764e-05
2.07764e-05
2.07764e-05
2.07764e-05
2.07764e-05
2.07764e-05
2.0752e-05
2.07764e-05
2.07764e-05
2.07764e-05
2.0752e-05
2.07764e-05
2.07764e-05
2.07764e-05
2.0752e-05
2.0752e-05
2.0752e-05
2.0752e-05
2.07275e-05
2.0752e-05
2.0752e-05
2.0752e-05
2.07275e-05
2.07275e-05
2.0752e-05
2.07275e-05
2.07275e-05
2.07275e-05
2.07275e-05
2.07275e-05
2.07275e-05
2.07031e-05
2.07275e-05
2.07275e-05
2.07275e-05
2.07275e-05
2.07275e-05
2.07275e-05
2.07031e-05
2.07275e-05
2.07031e-05
2.07031e-05
2.07031e-05
2.07275e-05
2.07031e-05
2.07031e-05
2.07031e-05
2.07031e-05
2.07031e-05
2.07031e-05
2.07031e-05
2.07031e-05
2.07031e-05
2.07031e-05
2.06787e-05
2.07031e-05
2.07031e-05
2.07031e-05
2.06787e-05
2.06787e-05
2.07031e-05
2.06787e-05
2.07031e-05
2.07031e-05
2.06787e-05
2.06787e-05
2.06787e-05
2.06787e-05
2.06787e-05
2.06787e-05
2.06543e-05
2.06787e-05
2.06787e-05
2.06543e-05
2.06543e-05
2.06543e-05
2.06543e-05
2.06543e-05
2.06299e-05
2.06543e-05
2.06299e-05
2.06299e-05
2.06299e-05
2.06299e-05
2.06299e-05
2.06299e-05
2.06055e-05
2.06055e-05
2.06055e-05
2.05811e-05
2.05811e-05
2.05811e-05
2.05811e-05
2.05566e-05
2.05566e-05
2.05566e-05
2.05566e-05
2.05322e-05
2.05078e-05
2.05322e-05
2.05322e-05
2.05322e-05
2.05078e-05
2.05078e-05
2.05078e-05
2.05078e-05
2.04834e-05
2.04834e-05
2.04834e-05
2.04834e-05
2.0459e-05
2.04834e-05
2.04834e-05
2.04834e-05
2.0459e-05
2.0459e-05
2.0459e-05
2.0459e-05
2.0459e-05
2.04346e-05
2.04346e-05
2.04346e-05
2.04346e-05
2.04346e-05
2.04102e-05
2.04102e-05
2.03857e-05
2.03857e-05
2.03857e-05
2.03857e-05
2.03613e-05
2.03613e-05
2.03613e-05
2.03369e-05
2.03125e-05
2.03369e-05
2.03125e-05
2.03125e-05
2.02881e-05
2.02881e-05
2.02881e-05
2.02881e-05
2.02637e-05
2.02637e-05
2.02637e-05
2.02637e-05
2.02393e-05
2.02393e-05
2.02393e-05
2.02148e-05
2.02148e-05
2.02148e-05
2.02148e-05
2.02148e-05
2.01904e-05
2.01904e-05
2.02148e-05
2.01904e-05
2.01904e-05
2.0166e-05
2.01904e-05
2.01904e-05
2.01904e-05
2.0166e-05
2.0166e-05
2.0166e-05
2.01416e-05
2.0166e-05
2.0166e-05
2.01416e-05
2.01416e-05
2.01416e-05
2.01416e-05
2.01416e-05
2.01172e-05
2.01172e-05
2.01172e-05
2.01172e-05
2.01172e-05
2.01172e-05
2.01172e-05
2.01172e-05
2.01172e-05
2.00928e-05
2.00928e-05
2.01172e-05
2.00928e-05
2.00928e-05
2.00928e-05
2.00928e-05
2.00684e-05
2.00928e-05
2.00928e-05
2.00928e-05
2.00684e-05
2.00684e-05
2.00684e-05
2.00928e-05
2.00439e-05
2.00684e-05
2.00684e-05
2.00684e-05
2.00439e-05
2.00684e-05
2.00684e-05
2.00684e-05
2.00439e-05
2.00439e-05
2.00439e-05
2.00439e-05
2.00195e-05
2.00439e-05
2.00439e-05
2.00195e-05
2.00195e-05
2.00195e-05
2.00195e-05
2.00195e-05
1.99951e-05
2.00195e-05
2.00195e-05
1.99951e-05
1.99951e-05
1.99951e-05
1.99951e-05
1.99707e-05
1.99707e-05
1.99707e-05
1.99707e-05
1.99463e-05
1.99219e-05
1.99463e-05
1.99219e-05
1.99219e-05
1.98975e-05
1.99219e-05
1.98975e-05
1.98975e-05
1.9873e-05
1.9873e-05
1.98975e-05
1.98975e-05
1.98975e-05
1.98975e-05
1.98975e-05
1.98975e-05
1.9873e-05
1.9873e-05
1.9873e-05
1.9873e-05
1.9873e-05
1.9873e-05
1.9873e-05
1.9873e-05
1.98486e-05
1.9873e-05
1.9873e-05
1.9873e-05
1.98486e-05
1.9873e-05
1.9873e-05
1.9873e-05
1.98486e-05
1.9873e-05
1.9873e-05
1.9873e-05
1.98486e-05
1.98486e-05
1.98486e-05
1.98486e-05
1.98486e-05
1.98486e-05
1.98486e-05
1.98486e-05
1.98242e-05
1.98486e-05
1.98486e-05
1.9873e-05
1.98486e-05
1.9873e-05
1.9873e-05
1.9873e-05
1.9873e-05
1.98975e-05
1.98975e-05
1.99219e-05
1.99463e-05
1.99463e-05
1.99707e-05
1.99707e-05
1.99707e-05
1.99951e-05
1.99951e-05
2.00195e-05
2.00195e-05
2.00439e-05
2.00684e-05
2.00684e-05
2.00439e-05
2.00684e-05
2.00928e-05
2.00928e-05
2.00928e-05
2.00928e-05
2.00928e-05
2.00928e-05
2.00928e-05
2.00928e-05
2.00928e-05
2.00928e-05
2.00928e-05
2.01172e-05
2.01172e-05
2.00928e-05
2.01172e-05
2.01172e-05
2.00928e-05
2.00928e-05
2.01172e-05
2.01172e-05
2.01172e-05
2.00928e-05
2.01172e-05
2.01172e-05
2.01172e-05
2.00928e-05
2.01172e-05
2.01172e-05
2.01172e-05
2.01172e-05
2.01172e-05
2.01172e-05
2.01416e-05
2.01416e-05
2.01416e-05
2.01416e-05
2.01416e-05
2.01416e-05
2.01416e-05
2.01172e-05
2.01416e-05
2.01172e-05
2.01416e-05
2.01416e-05
2.01416e-05
2.01172e-05
2.01416e-05
2.01416e-05
2.01416e-05
2.01416e-05
2.01416e-05
2.01416e-05
2.0166e-05
2.01416e-05
2.0166e-05
2.0166e-05
2.0166e-05
2.01416e-05
2.0166e-05
2.01416e-05
2.0166e-05
2.01416e-05
2.0166e-05
2.0166e-05
2.0166e-05
2.01416e-05
2.0166e-05
2.0166e-05
2.0166e-05
2.01416e-05
2.0166e-05
2.0166e-05
2.0166e-05
2.01416e-05
2.0166e-05
2.0166e-05
2.0166e-05
2.01416e-05
2.0166e-05
2.0166e-05
2.0166e-05
2.01416e-05
2.0166e-05
2.0166e-05
2.0166e-05
2.01416e-05
2.0166e-05
2.0166e-05
2.0166e-05
2.01416e-05
2.0166e-05
2.01416e-05
2.01416e-05
2.01416e-05
2.01416e-05
2.0166e-05
2.0166e-05
2.01416e-05
2.01416e-05
2.01416e-05
2.0166e-05
2.0166e-05
2.01416e-05
2.01416e-05
2.01416e-05
2.01416e-05
2.01416e-05
2.01416e-05
2.01416e-05
2.01172e-05
2.01416e-05
2.01416e-05
2.01172e-05
2.01416e-05
2.01416e-05
2.01416e-05
2.01416e-05
2.01416e-05
2.01416e-05
2.01416e-05
2.01416e-05
2.01416e-05
2.01172e-05
2.01172e-05
2.01416e-05
2.01416e-05
2.01172e-05
2.01172e-05
2.01172e-05
2.01172e-05
2.01172e-05
2.01416e-05
2.01416e-05
2.01172e-05
2.01172e-05
2.01172e-05
2.01172e-05
2.01172e-05
2.01172e-05
2.01172e-05
2.01172e-05
2.01172e-05
2.01172e-05
2.01172e-05
2.01172e-05
2.01172e-05
2.00928e-05
2.01172e-05
2.01172e-05
2.01172e-05
2.00928e-05
2.01172e-05
2.01172e-05
2.01172e-05
2.00928e-05
2.01172e-05
2.00928e-05
2.01172e-05
2.01172e-05
2.01172e-05
2.01172e-05
2.00928e-05
2.01172e-05
2.00928e-05
2.00928e-05
2.00928e-05
2.00928e-05
2.00928e-05
2.00928e-05
2.00928e-05
2.00684e-05
2.00928e-05
2.00928e-05
2.00928e-05
2.00684e-05
2.00928e-05
2.00928e-05
2.00928e-05
2.00684e-05
2.00684e-05
2.00928e-05
2.00928e-05
2.00928e-05
2.00684e-05
2.00684e-05
2.00684e-05
2.00684e-05
2.00684e-05
2.00684e-05
2.00684e-05
2.00439e-05
2.00684e-05
2.00684e-05
2.00684e-05
2.00684e-05
2.00684e-05
2.00684e-05
2.00684e-05
2.00439e-05
2.00684e-05
2.00684e-05
2.00684e-05
2.00684e-05
2.00684e-05
2.00684e-05
2.00684e-05
2.00439e-05
2.00684e-05
2.00684e-05
2.00684e-05
2.00439e-05
2.00684e-05
2.00684e-05
2.00684e-05
2.00439e-05
2.00684e-05
2.00684e-05
2.00684e-05
2.00439e-05
2.00684e-05
2.00684e-05
2.00684e-05
2.00439e-05
2.00684e-05
2.00684e-05
2.00684e-05
2.00439e-05
2.00684e-05
2.00684e-05
2.00439e-05
2.00439e-05
2.00684e-05
2.00684e-05
2.00439e-05
2.00439e-05
2.00684e-05
2.00684e-05
2.00439e-05
2.00439e-05
2.00439e-05
2.00684e-05
2.00684e-05
2.00684e-05
2.00439e-05
2.00439e-05
2.00439e-05
2.00684e-05
2.00684e-05
2.00684e-05
2.00684e-05
2.00439e-05
2.00684e-05
2.00684e-05
2.00684e-05
2.00684e-05
2.00684e-05
2.00684e-05
2.00684e-05
2.00439e-05
2.00684e-05
2.00684e-05
2.00684e-05
2.00439e-05
2.00684e-05
2.00684e-05
2.00684e-05
2.00684e-05
2.00684e-05
2.00684e-05
2.00684e-05
2.00684e-05
2.00684e-05
2.00684e-05
2.00684e-05
2.00439e-05
2.00684e-05
2.00684e-05
2.00684e-05
2.00439e-05
2.00684e-05
2.00684e-05
2.00684e-05
2.00684e-05
2.00928e-05
2.00928e-05
2.00928e-05
2.00684e-05
2.00928e-05
2.00928e-05
2.00928e-05
2.00928e-05
2.01172e-05
2.01172e-05
2.01172e-05
2.00928e-05
2.01172e-05
2.01172e-05
2.01172e-05
2.01172e-05
2.01172e-05
2.01172e-05
2.01416e-05
2.01172e-05
2.01172e-05
2.01416e-05
2.01416e-05
2.01416e-05
2.01416e-05
2.01172e-05
2.01172e-05
2.01172e-05
2.01416e-05
2.01416e-05
2.01416e-05
2.01172e-05
2.01416e-05
2.01416e-05
2.01416e-05
2.01172e-05
2.01172e-05
2.01172e-05
2.01172e-05
2.01172e-05
2.01172e-05
2.01172e-05
2.01172e-05
2.00928e-05
2.01172e-05
2.01172e-05
2.01172e-05
2.00928e-05
2.01172e-05
2.00928e-05
2.00928e-05
2.00684e-05
2.00928e-05
2.00928e-05
2.00684e-05
2.00684e-05
2.00684e-05
2.00684e-05
2.00684e-05
2.00439e-05
2.00684e-05
2.00684e-05
2.00684e-05
2.00439e-05
2.00439e-05
2.00439e-05
2.00439e-05
2.00195e-05
2.00439e-05
2.00439e-05
2.00439e-05
2.00195e-05
2.00439e-05
2.00195e-05
2.00195e-05
1.99951e-05
2.00195e-05
2.00195e-05
2.00195e-05
1.99951e-05
1.99951e-05
2.00195e-05
2.00195e-05
1.99951e-05
1.99951e-05
1.99951e-05
1.99951e-05
1.99951e-05
1.99951e-05
1.99951e-05
1.99951e-05
1.99707e-05
1.99951e-05
1.99951e-05
1.99951e-05
1.99707e-05
1.99707e-05
1.99707e-05
1.99707e-05
1.99463e-05
1.99707e-05
1.99463e-05
1.99707e-05
1.99463e-05
1.99707e-05
1.99707e-05
1.99463e-05
1.99463e-05
1.99463e-05
1.99463e-05
1.99463e-05
1.99463e-05
1.99463e-05
1.99463e-05
1.99463e-05
1.99219e-05
1.99463e-05
1.99463e-05
1.99463e-05
1.99219e-05
1.99463e-05
1.99463e-05
1.99463e-05
1.99219e-05
1.99463e-05
1.99463e-05
1.99463e-05
1.99219e-05
1.99219e-05
1.99219e-05
1.99463e-05
1.99219e-05
1.99219e-05
1.99463e-05
1.99219e-05
1.98975e-05
1.99219e-05
1.99219e-05
1.99219e-05
1.98975e-05
1.99219e-05
1.99219e-05
1.99219e-05
1.98975e-05
1.98975e-05
1.99219e-05
1.99219e-05
1.99219e-05
1.99219e-05
1.98975e-05
1.98975e-05
1.98975e-05
1.98975e-05
1.98975e-05
1.98975e-05
1.9873e-05
1.98975e-05
1.98975e-05
1.98975e-05
1.9873e-05
1.98975e-05
1.98975e-05
1.9873e-05
1.9873e-05
1.9873e-05
1.9873e-05
1.9873e-05
1.98486e-05
1.9873e-05
1.9873e-05
1.9873e-05
1.98486e-05
1.9873e-05
1.9873e-05
1.9873e-05
1.98486e-05
1.9873e-05
1.98486e-05
1.9873e-05
1.98486e-05
1.9873e-05
1.9873e-05
1.9873e-05
1.98242e-05
1.98486e-05
1.98486e-05
1.98486e-05
1.98242e-05
1.98486e-05
1.98242e-05
1.98242e-05
1.98242e-05
1.98242e-05
1.98242e-05
1.98486e-05
1.98242e-05
1.97998e-05
1.98242e-05
1.98242e-05
1.98242e-05
1.98242e-05
1.98242e-05
1.98242e-05
1.97998e-05
1.97998e-05
1.98242e-05
1.98242e-05
1.98242e-05
1.98242e-05
1.98242e-05
1.97998e-05
1.97998e-05
1.97998e-05
1.97998e-05
1.98242e-05
1.97998e-05
1.97998e-05
1.97998e-05
1.97998e-05
1.97754e-05
1.97998e-05
1.97998e-05
1.97998e-05
1.97754e-05
1.97754e-05
1.97998e-05
1.97998e-05
1.97754e-05
1.97754e-05
1.97754e-05
1.97754e-05
1.97754e-05
1.97754e-05
1.97754e-05
1.97754e-05
1.9751e-05
1.97754e-05
1.97754e-05
1.97754e-05
1.9751e-05
1.97754e-05
1.97754e-05
1.9751e-05
1.97266e-05
1.97754e-05
1.9751e-05
1.9751e-05
1.97266e-05
1.9751e-05
1.9751e-05
1.9751e-05
1.97266e-05
1.9751e-05
1.97266e-05
1.97266e-05
1.97266e-05
1.97266e-05
1.97266e-05
1.97266e-05
1.97021e-05
1.97266e-05
1.97266e-05
1.97021e-05
1.97021e-05
1.97021e-05
1.97021e-05
1.97021e-05
1.97021e-05
1.97021e-05
1.97021e-05
1.97021e-05
1.97021e-05
1.97021e-05
1.97021e-05
1.97021e-05
1.96777e-05
1.97021e-05
1.97021e-05
1.97021e-05
1.96777e-05
1.96777e-05
1.97021e-05
1.96777e-05
1.96777e-05
1.97021e-05
1.96777e-05
1.96777e-05
1.96533e-05
1.96777e-05
1.96777e-05
1.96777e-05
1.96777e-05
1.96777e-05
1.96777e-05
1.96777e-05
1.96777e-05
1.96777e-05
1.96777e-05
1.96777e-05
1.96777e-05
1.96777e-05
1.96777e-05
1.96777e-05
1.96777e-05
1.96533e-05
1.96777e-05
1.96777e-05
1.96533e-05
1.96777e-05
1.96533e-05
1.96533e-05
1.96289e-05
1.96533e-05
1.96533e-05
1.96289e-05
1.96289e-05
1.96533e-05
1.96533e-05
1.96533e-05
1.96289e-05
1.96533e-05
1.96533e-05
1.96289e-05
1.96289e-05
1.96289e-05
1.96289e-05
1.96289e-05
1.96533e-05
1.96289e-05
1.96533e-05
1.96289e-05
1.96289e-05
1.96533e-05
1.96533e-05
1.96289e-05
1.96289e-05
1.96289e-05
1.96289e-05
1.96289e-05
1.96289e-05
1.96045e-05
1.96289e-05
1.96289e-05
1.96289e-05
1.96045e-05
1.96289e-05
1.96045e-05
1.96045e-05
1.96045e-05
1.96045e-05
1.96045e-05
1.95801e-05
1.96045e-05
1.96045e-05
1.96045e-05
1.95801e-05
1.95801e-05
1.96045e-05
1.96045e-05
1.95801e-05
1.95801e-05
1.96045e-05
1.95801e-05
1.95801e-05
1.95801e-05
1.95801e-05
1.95801e-05
1.95801e-05
1.95801e-05
1.95801e-05
1.95801e-05
1.95557e-05
1.95801e-05
1.95801e-05
1.95801e-05
1.95557e-05
1.95801e-05
1.95801e-05
1.95801e-05
1.95557e-05
1.95801e-05
1.95801e-05
1.95801e-05
1.95557e-05
1.95557e-05
1.95801e-05
1.95801e-05
1.95557e-05
1.95557e-05
1.95801e-05
1.95801e-05
1.95801e-05
1.95557e-05
1.95557e-05
1.95557e-05
1.95557e-05
1.95557e-05
1.95557e-05
1.95557e-05
1.95313e-05
1.95557e-05
1.95557e-05
1.95557e-05
1.95313e-05
1.95313e-05
1.95557e-05
1.95557e-05
1.95557e-05
1.95557e-05
1.95557e-05
1.95557e-05
1.95313e-05
1.95557e-05
1.95557e-05
1.95557e-05
1.95313e-05
1.95313e-05
1.95557e-05
1.95313e-05
1.95557e-05
1.95557e-05
1.95557e-05
1.95313e-05
1.95313e-05
1.95557e-05
1.95313e-05
1.95557e-05
1.95313e-05
1.95557e-05
1.95557e-05
1.95557e-05
1.95313e-05
1.95557e-05
1.95313e-05
1.95557e-05
1.95313e-05
1.95557e-05
1.95557e-05
1.95313e-05
1.95313e-05
1.95313e-05
1.95313e-05
1.95313e-05
1.95313e-05
1.95313e-05
1.95313e-05
1.95313e-05
1.95068e-05
1.95068e-05
1.95068e-05
1.95068e-05
1.95068e-05
1.94824e-05
1.94824e-05
1.94824e-05
1.9458e-05
1.94824e-05
1.94824e-05
1.94824e-05
1.9458e-05
1.94824e-05
1.94824e-05
1.94824e-05
1.9458e-05
1.94824e-05
1.9458e-05
1.9458e-05
1.94336e-05
1.9458e-05
1.9458e-05
1.9458e-05
1.9458e-05
1.9458e-05
1.94336e-05
1.9458e-05
1.94336e-05
1.9458e-05
1.94336e-05
1.94336e-05
1.94336e-05
1.94336e-05
1.94336e-05
1.94336e-05
1.94336e-05
1.94336e-05
1.94336e-05
1.94336e-05
1.94092e-05
1.94336e-05
1.94092e-05
1.94336e-05
1.94092e-05
1.94092e-05
1.94092e-05
1.94092e-05
1.93848e-05
1.94092e-05
1.94092e-05
1.94092e-05
1.93848e-05
1.94092e-05
1.94092e-05
1.94092e-05
1.94092e-05
1.94092e-05
1.94092e-05
1.94092e-05
1.93848e-05
1.93848e-05
1.94092e-05
1.94092e-05
1.94092e-05
1.94092e-05
1.93848e-05
1.94092e-05
1.93848e-05
1.93848e-05
1.93848e-05
1.93848e-05
1.93604e-05
1.93604e-05
1.93848e-05
1.93848e-05
1.93848e-05
1.93848e-05
1.93848e-05
1.93604e-05
1.93604e-05
1.93604e-05
1.93604e-05
1.93604e-05
1.93604e-05
1.93604e-05
1.93604e-05
1.93604e-05
1.93359e-05
1.93604e-05
1.93604e-05
1.93604e-05
1.93359e-05
1.93604e-05
1.93604e-05
1.93359e-05
1.93359e-05
1.93359e-05
1.93604e-05
1.93359e-05
1.93359e-05
1.93359e-05
1.93359e-05
1.93359e-05
1.93359e-05
1.93359e-05
1.93359e-05
1.93359e-05
1.93115e-05
1.93359e-05
1.93359e-05
1.93115e-05
1.93115e-05
1.93115e-05
1.93115e-05
1.93115e-05
1.93115e-05
1.93115e-05
1.93115e-05
1.93115e-05
1.92871e-05
1.92871e-05
1.92871e-05
1.92871e-05
1.92871e-05
1.92871e-05
1.92871e-05
1.92871e-05
1.92627e-05
1.92627e-05
1.92627e-05
1.92627e-05
1.92627e-05
1.92627e-05
1.92627e-05
1.92627e-05
1.92383e-05
1.92627e-05
1.92383e-05
1.92383e-05
1.92383e-05
1.92383e-05
1.92383e-05
1.92383e-05
1.92139e-05
1.92383e-05
1.92383e-05
1.92139e-05
1.92139e-05
1.92139e-05
1.92139e-05
1.92139e-05
1.92139e-05
1.92139e-05
1.92139e-05
1.92139e-05
1.92139e-05
1.92139e-05
1.92139e-05
1.92139e-05
1.91895e-05
1.91895e-05
1.91895e-05
1.91895e-05
1.9165e-05
1.9165e-05
1.9165e-05
1.9165e-05
1.91406e-05
1.9165e-05
1.91406e-05
1.91406e-05
1.91162e-05
1.91406e-05
1.91406e-05
1.91406e-05
1.91162e-05
1.91162e-05
1.91162e-05
1.91162e-05
1.90918e-05
1.90918e-05
1.90918e-05
1.90918e-05
1.90918e-05
1.90918e-05
1.90918e-05
1.90674e-05
1.90674e-05
1.9043e-05
1.90674e-05
1.90674e-05
1.9043e-05
1.9043e-05
1.9043e-05
1.9043e-05
1.9043e-05
1.9043e-05
1.9043e-05
1.9043e-05
1.90186e-05
1.90186e-05
1.90186e-05
1.90186e-05
1.90186e-05
1.90186e-05
1.90186e-05
1.90186e-05
1.89941e-05
1.90186e-05
1.90186e-05
1.90186e-05
1.89941e-05
1.90186e-05
1.89941e-05
1.90186e-05
1.89941e-05
1.89941e-05
1.90186e-05
1.90186e-05
1.89941e-05
1.89941e-05
1.89941e-05
1.89941e-05
1.89941e-05
1.89941e-05
1.89941e-05
1.89941e-05
1.89697e-05
1.89941e-05
1.89941e-05
1.89941e-05
1.89697e-05
1.89941e-05
1.89697e-05
1.89697e-05
1.89697e-05
1.89697e-05
1.89697e-05
1.89697e-05
1.89697e-05
1.89697e-05
1.89697e-05
1.89697e-05
1.89697e-05
1.89697e-05
1.89697e-05
1.89697e-05
1.89453e-05
1.89697e-05
1.89697e-05
1.89697e-05
1.89697e-05
1.89697e-05
1.89697e-05
1.89697e-05
1.89697e-05
1.89453e-05
1.89453e-05
1.89453e-05
1.89453e-05
1.89453e-05
1.89453e-05
1.89453e-05
1.89453e-05
1.89453e-05
1.89453e-05
1.89209e-05
1.89209e-05
1.89209e-05
1.89209e-05
1.89209e-05
1.88965e-05
1.89209e-05
1.89209e-05
1.89209e-05
1.88965e-05
1.88965e-05
1.88965e-05
1.88965e-05
1.88965e-05
1.88965e-05
1.88965e-05
1.88721e-05
1.88721e-05
1.88721e-05
1.88721e-05
1.88721e-05
1.88721e-05
1.88721e-05
1.88721e-05
1.88721e-05
1.88477e-05
1.88721e-05
1.88721e-05
1.88477e-05
1.88477e-05
1.88477e-05
1.88477e-05
1.88477e-05
1.88721e-05
1.88477e-05
1.88721e-05
1.88477e-05
1.88477e-05
1.88477e-05
1.88477e-05
1.88477e-05
1.88477e-05
1.88477e-05
1.88477e-05
1.88232e-05
1.88232e-05
1.88232e-05
1.88232e-05
1.88232e-05
1.88232e-05
1.88232e-05
1.88232e-05
1.88232e-05
1.88232e-05
1.88232e-05
1.88232e-05
1.88232e-05
1.87988e-05
1.88232e-05
1.87988e-05
1.88232e-05
1.87988e-05
1.87988e-05
1.87988e-05
1.87988e-05
1.87744e-05
1.87988e-05
1.87988e-05
1.87988e-05
1.87744e-05
1.87744e-05
1.87988e-05
1.87744e-05
1.87744e-05
1.87744e-05
1.87744e-05
1.87744e-05
1.875e-05
1.87744e-05
1.87744e-05
1.87744e-05
1.875e-05
1.87744e-05
1.87744e-05
1.87744e-05
1.875e-05
1.875e-05
1.87744e-05
1.87744e-05
1.875e-05
1.87744e-05
1.87744e-05
1.875e-05
1.875e-05
1.875e-05
1.875e-05
1.875e-05
1.875e-05
1.875e-05
1.875e-05
1.875e-05
1.87256e-05
1.875e-05
1.875e-05
1.875e-05
1.87256e-05
1.875e-05
1.875e-05
1.875e-05
1.87256e-05
1.87256e-05
1.87256e-05
1.87256e-05
1.87256e-05
1.87256e-05
1.87256e-05
1.87012e-05
1.87012e-05
1.87012e-05
1.87012e-05
1.87012e-05
1.87012e-05
1.87012e-05
1.87012e-05
1.87012e-05
1.86768e-05
1.86768e-05
1.86768e-05
1.86768e-05
1.86523e-05
1.86768e-05
1.86523e-05
1.86768e-05
1.86523e-05
1.86523e-05
1.86523e-05
1.86523e-05
1.86523e-05
1.86523e-05
1.86523e-05
1.86523e-05
1.86279e-05
1.86523e-05
1.86523e-05
1.86523e-05
1.86523e-05
1.86523e-05
1.86523e-05
1.86523e-05
1.86279e-05
1.86279e-05
1.86279e-05
1.86279e-05
1.86279e-05
1.86279e-05
1.86279e-05
1.86035e-05
1.86035e-05
1.86035e-05
1.86279e-05
1.86035e-05
1.86035e-05
1.86035e-05
1.86035e-05
1.86035e-05
1.85791e-05
1.85791e-05
1.85791e-05
1.85791e-05
1.85791e-05
1.85791e-05
1.85791e-05
1.85791e-05
1.85791e-05
1.85791e-05
1.85791e-05
1.85791e-05
1.85547e-05
1.85791e-05
1.85791e-05
1.85547e-05
1.85547e-05
1.85547e-05
1.85547e-05
1.85547e-05
1.85547e-05
1.85547e-05
1.85547e-05
1.85547e-05
1.85303e-05
1.85547e-05
1.85547e-05
1.85547e-05
1.85303e-05
1.85547e-05
1.85547e-05
1.85303e-05
1.85303e-05
1.85303e-05
1.85303e-05
1.85303e-05
1.85303e-05
1.85303e-05
1.85303e-05
1.85303e-05
1.85303e-05
1.85303e-05
1.85303e-05
1.85303e-05
1.85059e-05
1.85303e-05
1.85303e-05
1.85303e-05
1.85059e-05
1.85303e-05
1.85059e-05
1.85303e-05
1.85059e-05
1.85059e-05
1.85059e-05
1.85059e-05
1.85059e-05
1.85059e-05
1.85059e-05
1.85059e-05
1.84814e-05
1.85059e-05
1.85059e-05
1.85059e-05
1.84814e-05
1.85059e-05
1.85059e-05
1.85059e-05
1.84814e-05
1.85059e-05
1.84814e-05
1.85059e-05
1.84814e-05
1.85059e-05
1.84814e-05
1.84814e-05
1.84814e-05
1.84814e-05
1.84814e-05
1.84814e-05
1.84814e-05
1.84814e-05
1.84814e-05
1.84814e-05
1.8457e-05
1.84814e-05
1.84814e-05
1.84814e-05
1.8457e-05
1.8457e-05
1.8457e-05
1.84814e-05
1.84814e-05
1.8457e-05
1.84814e-05
1.8457e-05
1.8457e-05
1.8457e-05
1.8457e-05
1.8457e-05
1.8457e-05
1.8457e-05
1.8457e-05
1.8457e-05
1.84326e-05
1.8457e-05
1.8457e-05
1.8457e-05
1.84326e-05
1.8457e-05
1.8457e-05
1.8457e-05
1.84326e-05
1.8457e-05
1.8457e-05
1.8457e-05
1.84326e-05
1.84326e-05
1.84326e-05
1.8457e-05
1.8457e-05
1.8457e-05
1.8457e-05
1.8457e-05
1.84326e-05
1.8457e-05
1.84326e-05
1.8457e-05
1.84326e-05
1.84326e-05
1.84326e-05
1.84326e-05
1.84326e-05
1.84326e-05
1.84326e-05
1.84326e-05
1.84326e-05
1.84326e-05
1.84326e-05
1.84326e-05
1.84326e-05
1.84326e-05
1.84326e-05
1.84326e-05
1.84326e-05
1.84326e-05
1.84326e-05
1.84326e-05
1.84326e-05
1.84326e-05
1.84326e-05
1.84326e-05
1.84326e-05
1.84326e-05
1.84326e-05
1.84326e-05
1.84326e-05
1.84326e-05
1.84326e-05
1.84326e-05
1.84082e-05
1.84326e-05
1.84326e-05
1.84326e-05
1.84326e-05
1.84326e-05
1.84326e-05
1.84326e-05
1.84082e-05
1.84326e-05
1.84326e-05
1.84326e-05
1.84082e-05
1.84326e-05
1.84326e-05
1.84326e-05
1.84082e-05
1.84082e-05
1.84326e-05
1.84326e-05
1.84326e-05
1.84082e-05
1.84082e-05
1.84082e-05
1.84082e-05
1.84082e-05
1.84082e-05
1.84082e-05
1.84082e-05
1.84082e-05
1.84082e-05
1.84082e-05
1.83838e-05
1.83838e-05
1.84082e-05
1.84082e-05
1.83838e-05
1.83838e-05
1.83838e-05
1.83838e-05
1.83838e-05
1.83838e-05
1.83838e-05
1.83838e-05
1.83838e-05
1.83838e-05
1.83838e-05
1.83838e-05
1.83838e-05
1.83838e-05
1.83838e-05
1.83838e-05
1.83838e-05
1.83838e-05
1.83838e-05
1.83838e-05
1.83594e-05
1.83594e-05
1.83838e-05
1.83594e-05
1.83594e-05
1.83594e-05
1.83594e-05
1.83594e-05
1.83594e-05
1.83594e-05
1.83838e-05
1.83838e-05
1.83838e-05
1.83838e-05
1.83838e-05
1.83838e-05
1.83838e-05
1.83838e-05
1.83838e-05
1.83838e-05
1.83838e-05
1.83594e-05
1.83838e-05
1.83594e-05
1.83594e-05
1.83594e-05
1.83594e-05
1.83594e-05
1.83594e-05
1.83594e-05
1.83594e-05
1.83594e-05
1.83594e-05
1.83594e-05
1.83594e-05
1.83594e-05
1.8335e-05
1.83594e-05
1.83594e-05
1.83594e-05
1.8335e-05
1.8335e-05
1.8335e-05
1.8335e-05
1.8335e-05
1.8335e-05
1.8335e-05
1.8335e-05
1.83105e-05
1.8335e-05
1.8335e-05
1.8335e-05
1.83105e-05
1.8335e-05
1.83105e-05
1.83105e-05
1.83105e-05
1.8335e-05
1.83105e-05
1.83105e-05
1.83105e-05
1.83105e-05
1.83105e-05
1.83105e-05
1.83105e-05
1.83105e-05
1.83105e-05
1.83105e-05
1.83105e-05
1.83105e-05
1.83105e-05
1.83105e-05
1.83105e-05
1.83105e-05
1.83105e-05
1.83105e-05
1.83105e-05
1.83105e-05
1.83105e-05
1.83105e-05
1.82861e-05
1.82861e-05
1.83105e-05
1.83105e-05
1.83105e-05
1.83105e-05
1.83105e-05
1.83105e-05
1.82861e-05
1.83105e-05
1.83105e-05
1.82861e-05
1.82861e-05
1.82861e-05
1.82861e-05
1.83105e-05
1.82861e-05
1.82861e-05
1.82861e-05
1.82861e-05
1.82861e-05
1.82861e-05
1.82861e-05
1.82861e-05
1.82861e-05
1.82861e-05
1.82861e-05
1.82861e-05
1.82861e-05
1.82861e-05
1.82861e-05
1.82861e-05
1.82861e-05
1.82861e-05
1.82861e-05
1.82617e-05
1.82617e-05
1.82861e-05
1.82861e-05
1.82861e-05
1.82617e-05
1.82617e-05
1.82617e-05
1.82617e-05
1.82617e-05
1.82617e-05
1.82617e-05
1.82617e-05
1.82617e-05
1.82617e-05
1.82617e-05
1.82617e-05
1.82617e-05
1.82617e-05
1.82617e-05
1.82617e-05
1.82617e-05
1.82373e-05
1.82617e-05
1.82617e-05
1.82617e-05
1.82373e-05
1.82617e-05
1.82373e-05
1.82373e-05
1.82617e-05
1.82617e-05
1.82373e-05
1.82373e-05
1.82617e-05
1.82373e-05
1.82373e-05
1.82373e-05
1.82373e-05
1.82373e-05
1.82373e-05
1.82373e-05
1.82373e-05
1.82373e-05
1.82373e-05
1.82373e-05
1.82373e-05
1.82373e-05
1.82373e-05
1.82129e-05
1.82129e-05
1.82129e-05
1.82129e-05
1.82129e-05
1.82129e-05
1.82129e-05
1.82129e-05
1.82129e-05
1.82129e-05
1.82129e-05
1.82129e-05
1.82129e-05
1.82129e-05
1.82129e-05
1.82129e-05
1.82129e-05
1.82129e-05
1.82129e-05
1.82129e-05
1.81885e-05
1.82129e-05
1.82129e-05
1.82129e-05
1.81885e-05
1.82129e-05
1.82129e-05
1.82129e-05
1.81885e-05
1.81885e-05
1.82129e-05
1.81885e-05
1.81885e-05
1.81885e-05
1.81885e-05
1.81885e-05
1.81885e-05
1.81885e-05
1.81885e-05
1.81885e-05
1.81885e-05
1.81885e-05
1.81885e-05
1.81885e-05
1.81885e-05
1.81885e-05
1.81885e-05
1.81885e-05
1.81885e-05
1.81885e-05
1.81885e-05
1.81885e-05
1.81885e-05
1.81885e-05
1.81885e-05
1.81885e-05
1.81885e-05
1.81885e-05
1.81885e-05
1.81885e-05
1.81885e-05
1.81885e-05
1.81885e-05
1.81885e-05
1.81885e-05
1.81885e-05
1.81885e-05
1.81885e-05
1.81885e-05
1.81885e-05
1.81885e-05
1.81885e-05
1.81885e-05
1.81885e-05
1.81885e-05
1.81885e-05
1.81885e-05
1.81885e-05
1.82129e-05
1.82129e-05
1.82129e-05
1.82129e-05
1.82129e-05
1.82129e-05
1.82129e-05
1.82129e-05
1.82129e-05
1.82129e-05
1.82129e-05
1.82373e-05
1.82373e-05
1.82129e-05
1.82129e-05
1.82373e-05
1.82373e-05
1.82373e-05
1.82373e-05
1.82373e-05
1.82373e-05
1.82373e-05
1.82373e-05
1.82373e-05
1.82373e-05
1.82373e-05
1.82373e-05
1.82373e-05
1.82373e-05
1.82373e-05
1.82373e-05
1.82373e-05
1.82373e-05
1.82373e-05
1.82373e-05
1.82373e-05
1.82373e-05
1.82373e-05
1.82129e-05
1.82129e-05
1.82373e-05
1.82129e-05
1.82129e-05
1.82129e-05
1.82129e-05
1.82373e-05
1.82129e-05
1.82129e-05
1.82129e-05
1.82129e-05
1.82129e-05
1.82129e-05
1.82129e-05
1.82129e-05
1.81885e-05
1.82129e-05
1.82129e-05
1.82129e-05
1.81885e-05
1.82129e-05
1.82129e-05
1.82129e-05
1.82129e-05
1.82129e-05
1.82129e-05
1.82129e-05
1.81885e-05
1.81885e-05
1.82129e-05
1.81885e-05
1.81885e-05
1.81885e-05
1.81885e-05
1.81885e-05
1.81885e-05
1.81885e-05
1.81885e-05
1.81885e-05
1.81885e-05
1.81885e-05
1.81885e-05
1.81885e-05
1.81885e-05
1.81641e-05
1.81885e-05
1.81885e-05
1.81885e-05
1.81885e-05
1.81885e-05
1.81641e-05
1.81641e-05
1.81641e-05
1.81641e-05
1.81641e-05
1.81641e-05
1.81641e-05
1.81641e-05
1.81641e-05
1.81641e-05
1.81641e-05
1.81641e-05
1.81641e-05
1.81396e-05
1.81641e-05
1.81641e-05
1.81396e-05
1.81396e-05
1.81396e-05
1.81396e-05
1.81396e-05
1.81396e-05
1.81396e-05
1.81396e-05
1.81396e-05
1.81396e-05
1.81396e-05
1.81396e-05
1.81396e-05
1.81396e-05
1.81396e-05
1.81396e-05
1.81396e-05
1.81396e-05
1.81396e-05
1.81396e-05
1.81396e-05
1.81152e-05
1.81396e-05
1.81152e-05
1.81396e-05
1.81152e-05
1.81152e-05
1.81152e-05
1.81152e-05
1.81152e-05
1.81152e-05
1.81152e-05
1.81152e-05
1.81152e-05
1.81152e-05
1.81152e-05
1.81152e-05
1.80908e-05
1.80908e-05
1.81152e-05
1.81152e-05
1.80908e-05
1.80908e-05
1.80908e-05
1.80908e-05
1.80908e-05
1.80908e-05
1.80908e-05
1.80908e-05
1.80908e-05
1.80908e-05
1.80908e-05
1.80664e-05
1.80908e-05
1.80908e-05
1.80664e-05
1.80664e-05
1.80664e-05
1.80664e-05
1.80664e-05
1.80664e-05
1.80664e-05
1.80664e-05
1.80664e-05
1.80664e-05
1.80664e-05
1.80664e-05
1.80664e-05
1.80664e-05
1.8042e-05
1.80664e-05
1.80664e-05
1.8042e-05
1.8042e-05
1.8042e-05
1.8042e-05
1.8042e-05
1.8042e-05
1.8042e-05
1.8042e-05
1.8042e-05
1.8042e-05
1.8042e-05
1.8042e-05
1.8042e-05
1.80176e-05
1.8042e-05
1.8042e-05
1.8042e-05
1.8042e-05
1.8042e-05
1.8042e-05
1.80176e-05
1.80176e-05
1.8042e-05
1.8042e-05
1.80176e-05
1.80176e-05
1.80176e-05
1.80176e-05
1.80176e-05
1.80176e-05
1.80176e-05
1.80176e-05
1.80176e-05
1.79932e-05
1.79932e-05
1.80176e-05
1.80176e-05
1.80176e-05
1.80176e-05
1.79932e-05
1.79932e-05
1.79932e-05
1.80176e-05
1.79932e-05
1.79932e-05
1.79932e-05
1.79932e-05
1.79932e-05
1.79932e-05
1.79932e-05
1.79932e-05
1.79932e-05
1.79932e-05
1.79932e-05
1.79932e-05
1.79932e-05
1.79932e-05
1.79932e-05
1.79932e-05
1.79932e-05
1.79932e-05
1.79932e-05
1.79932e-05
1.79932e-05
1.79932e-05
1.79932e-05
1.79932e-05
1.79932e-05
1.79932e-05
1.79932e-05
1.79932e-05
1.79932e-05
1.79932e-05
1.79932e-05
1.79932e-05
1.79932e-05
1.79932e-05
1.79932e-05
1.79932e-05
1.79932e-05
1.79932e-05
1.79932e-05
1.79932e-05
1.79932e-05
1.79932e-05
1.79687e-05
1.79932e-05
1.79932e-05
1.79687e-05
1.79687e-05
1.79687e-05
1.79687e-05
1.79932e-05
1.79687e-05
1.79687e-05
1.79687e-05
1.79687e-05
1.79687e-05
1.79687e-05
1.79687e-05
1.79687e-05
1.79687e-05
1.79687e-05
1.79687e-05
1.79687e-05
1.79687e-05
1.79687e-05
1.79687e-05
1.79687e-05
1.79687e-05
1.79687e-05
1.79687e-05
1.79687e-05
1.79687e-05
1.79443e-05
1.79687e-05
1.79687e-05
1.79687e-05
1.79687e-05
1.79443e-05
1.79687e-05
1.79443e-05
1.79443e-05
1.79687e-05
1.79443e-05
1.79443e-05
1.79687e-05
1.79443e-05
1.79443e-05
1.79443e-05
1.79443e-05
1.79443e-05
1.79443e-05
1.79443e-05
1.79443e-05
1.79443e-05
1.79443e-05
1.79443e-05
1.79443e-05
1.79443e-05
1.79443e-05
1.79443e-05
1.79443e-05
1.79443e-05
1.79443e-05
1.79443e-05
1.79443e-05
1.79443e-05
1.79443e-05
1.79199e-05
1.79443e-05
1.79199e-05
1.79199e-05
1.79199e-05
1.79443e-05
1.79443e-05
1.79199e-05
1.79199e-05
1.79199e-05
1.79443e-05
1.79443e-05
1.79199e-05
1.79199e-05
1.79199e-05
1.79199e-05
1.79199e-05
1.79199e-05
1.79199e-05
1.79199e-05
1.79199e-05
1.79199e-05
1.79199e-05
1.79199e-05
1.79199e-05
1.79199e-05
1.79199e-05
1.79199e-05
1.79199e-05
1.79199e-05
1.79199e-05
1.79199e-05
1.79199e-05
1.79199e-05
1.79199e-05
1.79199e-05
1.78955e-05
1.78955e-05
1.78955e-05
1.78955e-05
1.78955e-05
1.78955e-05
1.78955e-05
1.78955e-05
1.78955e-05
1.78955e-05
1.78955e-05
1.78955e-05
1.78711e-05
1.78955e-05
1.78711e-05
1.78711e-05
1.78711e-05
1.78711e-05
1.78711e-05
1.78711e-05
1.78711e-05
1.78711e-05
1.78711e-05
1.78711e-05
1.78711e-05
1.78711e-05
1.78711e-05
1.78711e-05
1.78467e-05
1.78711e-05
1.78467e-05
1.78467e-05
1.78467e-05
1.78711e-05
1.78467e-05
1.78467e-05
1.78467e-05
1.78711e-05
1.78467e-05
1.78467e-05
1.78467e-05
1.78467e-05
1.78467e-05
1.78467e-05
1.78467e-05
1.78467e-05
1.78467e-05
1.78467e-05
1.78467e-05
1.78467e-05
1.78223e-05
1.78223e-05
1.78223e-05
1.78223e-05
1.78223e-05
1.78223e-05
1.78223e-05
1.78223e-05
1.78223e-05
1.78223e-05
1.78223e-05
1.78223e-05
1.77979e-05
1.77979e-05
1.77979e-05
1.78223e-05
1.77979e-05
1.77979e-05
1.77979e-05
1.77979e-05
1.77979e-05
1.77979e-05
1.77979e-05
1.77979e-05
1.77979e-05
1.77979e-05
1.77979e-05
1.77979e-05
1.77979e-05
1.77979e-05
1.77734e-05
1.77979e-05
1.77734e-05
1.77734e-05
1.77734e-05
1.77734e-05
1.77734e-05
1.77734e-05
1.77734e-05
1.77734e-05
1.77734e-05
1.77734e-05
1.77734e-05
1.77734e-05
1.77734e-05
1.77734e-05
1.77734e-05
1.77734e-05
1.77734e-05
1.77734e-05
1.77734e-05
1.77734e-05
1.77734e-05
1.77734e-05
1.7749e-05
1.77734e-05
1.7749e-05
1.77734e-05
1.7749e-05
1.7749e-05
1.7749e-05
1.7749e-05
1.7749e-05
1.7749e-05
1.7749e-05
1.7749e-05
1.7749e-05
1.7749e-05
1.7749e-05
1.7749e-05
1.7749e-05
1.77246e-05
1.7749e-05
1.77246e-05
1.77246e-05
1.77246e-05
1.77246e-05
1.77246e-05
1.77246e-05
1.77246e-05
1.77246e-05
1.77246e-05
1.77246e-05
1.77246e-05
1.77246e-05
1.77246e-05
1.77246e-05
1.77246e-05
1.77246e-05
1.77002e-05
1.77246e-05
1.77002e-05
1.77002e-05
1.77002e-05
1.77002e-05
1.77002e-05
1.77002e-05
1.77002e-05
1.77002e-05
1.77002e-05
1.77002e-05
1.77002e-05
1.77002e-05
1.76758e-05
1.76758e-05
1.77002e-05
1.77002e-05
1.77002e-05
1.76758e-05
1.76758e-05
1.76758e-05
1.76758e-05
1.76758e-05
1.76758e-05
1.76758e-05
1.76758e-05
1.76758e-05
1.76758e-05
1.76758e-05
1.76758e-05
1.76758e-05
1.76758e-05
1.76514e-05
1.76758e-05
1.76758e-05
1.76758e-05
1.76514e-05
1.76514e-05
1.76514e-05
1.76514e-05
1.76514e-05
1.76514e-05
1.76514e-05
1.76514e-05
1.76514e-05
1.76514e-05
1.76514e-05
1.76514e-05
1.76514e-05
1.76514e-05
1.76514e-05
1.76514e-05
1.7627e-05
1.76514e-05
1.76514e-05
1.7627e-05
1.7627e-05
1.76514e-05
1.76514e-05
1.7627e-05
1.7627e-05
1.7627e-05
1.7627e-05
1.7627e-05
1.7627e-05
1.7627e-05
1.7627e-05
1.7627e-05
1.7627e-05
1.76025e-05
1.7627e-05
1.7627e-05
1.76025e-05
1.76025e-05
1.76025e-05
1.76025e-05
1.76025e-05
1.76025e-05
1.76025e-05
1.76025e-05
1.76025e-05
1.76025e-05
1.76025e-05
1.76025e-05
1.76025e-05
1.76025e-05
1.76025e-05
1.76025e-05
1.76025e-05
1.76025e-05
1.76025e-05
1.75781e-05
1.75781e-05
1.75781e-05
1.75781e-05
1.75781e-05
1.75781e-05
1.75781e-05
1.75781e-05
1.75781e-05
1.75781e-05
1.75781e-05
1.75781e-05
1.75781e-05
1.75781e-05
1.75781e-05
1.75781e-05
1.75781e-05
1.75781e-05
1.75537e-05
1.75781e-05
1.75537e-05
1.75537e-05
1.75537e-05
1.75537e-05
1.75537e-05
1.75537e-05
1.75537e-05
1.75537e-05
1.75537e-05
1.75537e-05
1.75537e-05
1.75537e-05
1.75537e-05
1.75537e-05
1.75537e-05
1.75537e-05
1.75537e-05
1.75537e-05
1.75537e-05
1.75537e-05
1.75537e-05
1.75293e-05
1.75537e-05
1.75293e-05
1.75537e-05
1.75293e-05
1.75293e-05
1.75293e-05
1.75293e-05
1.75293e-05
1.75293e-05
1.75293e-05
1.75293e-05
1.75293e-05
1.75293e-05
1.75293e-05
1.75293e-05
1.75293e-05
1.75293e-05
1.75293e-05
1.75293e-05
1.75293e-05
1.75293e-05
1.75293e-05
1.75293e-05
1.75293e-05
1.75049e-05
1.75293e-05
1.75293e-05
1.75049e-05
1.75049e-05
1.75049e-05
1.75293e-05
1.75049e-05
1.75049e-05
1.75293e-05
1.75049e-05
1.75049e-05
1.75049e-05
1.75293e-05
1.75049e-05
1.75049e-05
1.75049e-05
1.75049e-05
1.75049e-05
1.75049e-05
1.75049e-05
1.75049e-05
1.75049e-05
1.75049e-05
1.75049e-05
1.75049e-05
1.75049e-05
1.75049e-05
1.75049e-05
1.75049e-05
1.75049e-05
1.75049e-05
1.74805e-05
1.74805e-05
1.74805e-05
1.75049e-05
1.75049e-05
1.74805e-05
1.74805e-05
1.74805e-05
1.74805e-05
1.74805e-05
1.74805e-05
1.74805e-05
1.74805e-05
1.74805e-05
1.74805e-05
1.74805e-05
1.74805e-05
1.74805e-05
1.74805e-05
1.74805e-05
1.74805e-05
1.74805e-05
1.74805e-05
1.74805e-05
1.74805e-05
1.74805e-05
1.74561e-05
1.74561e-05
1.74805e-05
1.74561e-05
1.74561e-05
1.74561e-05
1.74805e-05
1.74561e-05
1.74561e-05
1.74561e-05
1.74561e-05
1.74561e-05
1.74561e-05
1.74561e-05
1.74561e-05
1.74561e-05
1.74561e-05
1.74561e-05
1.74561e-05
1.74561e-05
1.74561e-05
1.74561e-05
1.74561e-05
1.74561e-05
1.74316e-05
1.74561e-05
1.74316e-05
1.74316e-05
1.74561e-05
1.74316e-05
1.74316e-05
1.74316e-05
1.74316e-05
1.74316e-05
1.74316e-05
1.74316e-05
1.74316e-05
1.74316e-05
1.74316e-05
1.74316e-05
1.74316e-05
1.74072e-05
1.74316e-05
1.74316e-05
1.74072e-05
1.74316e-05
1.74316e-05
1.74316e-05
1.74072e-05
1.74072e-05
1.74072e-05
1.74072e-05
1.74072e-05
1.74072e-05
1.74072e-05
1.74072e-05
1.74072e-05
1.74072e-05
1.74072e-05
1.74072e-05
1.74072e-05
1.74072e-05
1.74072e-05
1.74072e-05
1.74072e-05
1.74072e-05
1.74072e-05
1.74072e-05
1.74072e-05
1.74072e-05
1.74072e-05
1.73828e-05
1.73828e-05
1.73828e-05
1.73828e-05
1.73828e-05
1.73828e-05
1.73828e-05
1.73828e-05
1.73828e-05
1.73828e-05
1.73828e-05
1.73828e-05
1.73828e-05
1.73828e-05
1.73828e-05
1.73828e-05
1.73828e-05
1.73828e-05
1.73584e-05
1.73584e-05
1.73584e-05
1.73584e-05
1.73584e-05
1.73584e-05
1.73584e-05
1.73584e-05
1.73584e-05
1.73584e-05
1.73584e-05
1.73584e-05
1.73584e-05
1.73584e-05
1.73584e-05
1.73584e-05
1.73584e-05
1.73584e-05
1.73584e-05
1.73584e-05
1.73584e-05
1.73584e-05
1.73584e-05
1.73584e-05
1.73584e-05
1.73584e-05
1.73584e-05
1.73584e-05
1.73584e-05
1.73584e-05
1.73584e-05
1.73584e-05
1.73584e-05
1.73584e-05
1.73584e-05
1.73584e-05
1.7334e-05
1.73584e-05
1.73584e-05
1.73584e-05
1.73584e-05
1.7334e-05
1.73584e-05
1.7334e-05
1.73584e-05
1.7334e-05
1.7334e-05
1.7334e-05
1.7334e-05
1.7334e-05
1.7334e-05
1.7334e-05
1.7334e-05
1.7334e-05
1.7334e-05
1.7334e-05
1.7334e-05
1.7334e-05
1.7334e-05
1.7334e-05
1.7334e-05
1.7334e-05
1.7334e-05
1.7334e-05
1.7334e-05
1.7334e-05
1.7334e-05
1.7334e-05
1.7334e-05
1.7334e-05
1.7334e-05
1.7334e-05
1.7334e-05
1.7334e-05
1.7334e-05
1.7334e-05
1.7334e-05
1.7334e-05
1.73096e-05
1.73096e-05
1.73096e-05
1.73096e-05
1.73096e-05
1.7334e-05
1.73096e-05
1.73096e-05
1.73096e-05
1.73096e-05
1.73096e-05
1.73096e-05
1.73096e-05
1.73096e-05
1.73096e-05
1.73096e-05
1.73096e-05
1.73096e-05
1.73096e-05
1.73096e-05
1.72852e-05
1.72852e-05
1.72852e-05
1.72852e-05
1.73096e-05
1.72852e-05
1.72852e-05
1.72852e-05
1.72852e-05
1.72852e-05
1.72852e-05
1.72852e-05
1.72852e-05
1.72852e-05
1.72852e-05
1.72852e-05
1.72852e-05
1.72852e-05
1.72852e-05
1.72852e-05
1.72852e-05
1.72852e-05
1.72852e-05
1.72852e-05
1.72607e-05
1.72607e-05
1.72607e-05
1.72852e-05
1.72607e-05
1.72607e-05
1.72607e-05
1.72607e-05
1.72607e-05
1.72607e-05
1.72607e-05
1.72607e-05
1.72607e-05
1.72607e-05
1.72607e-05
1.72607e-05
1.72607e-05
1.72607e-05
1.72607e-05
1.72607e-05
1.72607e-05
1.72607e-05
1.72607e-05
1.72607e-05
1.72607e-05
1.72607e-05
1.72607e-05
1.72607e-05
1.72607e-05
1.72607e-05
1.72607e-05
1.72607e-05
1.72607e-05
1.72607e-05
1.72607e-05
1.72363e-05
1.72607e-05
1.72363e-05
1.72363e-05
1.72607e-05
1.72363e-05
1.72363e-05
1.72363e-05
1.72363e-05
1.72363e-05
1.72363e-05
1.72363e-05
1.72363e-05
1.72363e-05
1.72363e-05
1.72363e-05
1.72363e-05
1.72363e-05
1.72119e-05
1.72119e-05
1.72119e-05
1.72119e-05
1.72119e-05
1.72119e-05
1.72119e-05
1.72119e-05
1.72119e-05
1.72119e-05
1.72119e-05
1.72119e-05
1.72119e-05
1.72119e-05
1.72119e-05
1.72119e-05
1.72119e-05
1.72119e-05
1.72119e-05
1.71875e-05
1.71875e-05
1.71875e-05
1.71875e-05
1.71875e-05
1.71875e-05
1.71875e-05
1.71875e-05
1.71875e-05
1.71875e-05
1.71875e-05
1.71875e-05
1.71875e-05
1.71875e-05
1.71875e-05
1.71631e-05
1.71631e-05
1.71631e-05
1.71631e-05
1.71631e-05
1.71631e-05
1.71631e-05
1.71631e-05
1.71631e-05
1.71631e-05
1.71631e-05
1.71631e-05
1.71631e-05
1.71631e-05
1.71631e-05
1.71631e-05
1.71631e-05
1.71631e-05
1.71631e-05
1.71387e-05
1.71387e-05
1.71631e-05
1.71631e-05
1.71387e-05
1.71387e-05
1.71387e-05
1.71387e-05
1.71387e-05
1.71387e-05
1.71387e-05
1.71387e-05
1.71387e-05
1.71387e-05
1.71387e-05
1.71387e-05
1.71387e-05
1.71387e-05
1.71143e-05
1.71387e-05
1.71143e-05
1.71143e-05
1.71143e-05
1.71143e-05
1.71143e-05
1.71143e-05
1.71143e-05
1.71143e-05
1.71143e-05
1.71143e-05
1.71143e-05
1.71143e-05
1.71143e-05
1.70898e-05
1.71143e-05
1.70898e-05
1.70898e-05
1.70898e-05
1.70898e-05
1.70898e-05
1.70898e-05
1.70898e-05
1.70898e-05
1.70898e-05
1.70898e-05
1.70898e-05
1.70898e-05
1.70898e-05
1.70898e-05
1.70898e-05
1.70898e-05
1.70898e-05
1.70898e-05
1.70898e-05
1.70898e-05
1.70898e-05
1.70898e-05
1.70898e-05
1.70898e-05
1.70898e-05
1.70898e-05
1.70898e-05
1.70654e-05
1.70654e-05
1.70654e-05
1.70654e-05
1.70654e-05
1.70654e-05
1.70654e-05
1.70654e-05
1.70654e-05
1.70654e-05
1.70654e-05
1.70654e-05
1.70654e-05
1.70654e-05
1.70654e-05
1.70654e-05
1.70654e-05
1.70654e-05
1.70654e-05
1.70654e-05
1.70654e-05
1.70654e-05
1.7041e-05
1.7041e-05
1.7041e-05
1.7041e-05
1.7041e-05
1.7041e-05
1.7041e-05
1.7041e-05
1.7041e-05
1.7041e-05
1.7041e-05
1.7041e-05
1.7041e-05
1.7041e-05
1.7041e-05
1.7041e-05
1.7041e-05
1.70166e-05
1.7041e-05
1.70166e-05
1.70166e-05
1.70166e-05
1.70166e-05
1.70166e-05
1.70166e-05
1.70166e-05
1.70166e-05
1.70166e-05
1.70166e-05
1.70166e-05
1.70166e-05
1.70166e-05
1.70166e-05
1.70166e-05
1.69922e-05
1.69922e-05
1.70166e-05
1.69922e-05
1.70166e-05
1.69922e-05
1.69922e-05
1.69922e-05
1.69922e-05
1.69922e-05
1.69922e-05
1.69922e-05
1.69922e-05
1.69922e-05
1.69922e-05
1.69922e-05
1.69922e-05
1.69922e-05
1.69922e-05
1.69922e-05
1.69922e-05
1.69922e-05
1.69922e-05
1.69922e-05
1.69922e-05
1.69922e-05
1.69922e-05
1.69922e-05
1.69922e-05
1.69922e-05
1.69922e-05
1.69678e-05
1.69678e-05
1.69922e-05
1.69678e-05
1.69922e-05
1.69678e-05
1.69678e-05
1.69678e-05
1.69678e-05
1.69678e-05
1.69678e-05
1.69678e-05
1.69678e-05
1.69678e-05
1.69678e-05
1.69678e-05
1.69678e-05
1.69678e-05
1.69678e-05
1.69678e-05
1.69678e-05
1.69678e-05
1.69678e-05
1.69678e-05
1.69678e-05
1.69678e-05
1.69678e-05
1.69678e-05
1.69678e-05
1.69678e-05
1.69678e-05
1.69678e-05
1.69434e-05
1.69434e-05
1.69434e-05
1.69434e-05
1.69434e-05
1.69434e-05
1.69434e-05
1.69434e-05
1.69434e-05
1.69434e-05
1.69434e-05
1.69434e-05
1.69434e-05
1.69434e-05
1.69434e-05
1.69434e-05
1.69434e-05
1.69434e-05
1.69434e-05
1.69189e-05
1.69434e-05
1.69189e-05
1.69434e-05
1.69434e-05
1.69189e-05
1.69434e-05
1.69189e-05
1.69434e-05
1.69189e-05
1.69189e-05
1.69189e-05
1.69189e-05
1.69189e-05
1.69189e-05
1.69189e-05
1.69189e-05
1.69189e-05
1.69189e-05
1.69189e-05
1.68945e-05
1.69189e-05
1.69189e-05
1.68945e-05
1.68945e-05
1.68945e-05
1.68945e-05
1.68945e-05
1.68945e-05
1.68945e-05
1.68945e-05
1.68945e-05
1.68945e-05
1.68945e-05
1.68945e-05
1.68945e-05
1.68945e-05
1.68945e-05
1.68945e-05
1.68945e-05
1.68945e-05
1.68945e-05
1.68945e-05
1.68945e-05
1.68945e-05
1.68945e-05
1.68945e-05
1.68945e-05
1.68945e-05
1.68945e-05
1.68945e-05
1.68945e-05
1.68945e-05
1.68701e-05
1.68701e-05
1.68701e-05
1.68701e-05
1.68701e-05
1.68701e-05
1.68701e-05
1.68701e-05
1.68701e-05
1.68701e-05
1.68701e-05
1.68701e-05
1.68701e-05
1.68701e-05
1.68701e-05
1.68701e-05
1.68701e-05
1.68701e-05
1.68701e-05
1.68701e-05
1.68701e-05
1.68457e-05
1.68457e-05
1.68701e-05
1.68701e-05
1.68457e-05
1.68701e-05
1.68701e-05
1.68457e-05
1.68457e-05
1.68457e-05
1.68457e-05
1.68457e-05
1.68457e-05
1.68457e-05
1.68457e-05
1.68457e-05
1.68457e-05
1.68457e-05
1.68457e-05
1.68457e-05
1.68213e-05
1.68213e-05
1.68457e-05
1.68457e-05
1.68457e-05
1.68457e-05
1.68213e-05
1.68457e-05
1.68213e-05
1.68213e-05
1.68213e-05
1.68213e-05
1.68213e-05
1.68213e-05
1.68213e-05
1.68213e-05
1.68213e-05
1.68213e-05
1.68213e-05
1.68213e-05
1.68213e-05
1.68213e-05
1.68213e-05
1.68213e-05
1.68213e-05
1.68213e-05
1.68213e-05
1.68213e-05
1.67969e-05
1.68213e-05
1.68213e-05
1.68213e-05
1.68213e-05
1.68213e-05
1.67969e-05
1.68213e-05
1.68213e-05
1.67969e-05
1.67969e-05
1.67969e-05
1.67969e-05
1.67969e-05
1.67969e-05
1.67969e-05
1.67969e-05
1.67969e-05
1.67969e-05
1.67969e-05
1.67969e-05
1.67969e-05
1.67969e-05
1.67969e-05
1.67969e-05
1.67969e-05
1.67969e-05
1.67969e-05
1.67969e-05
1.67969e-05
1.67969e-05
1.67969e-05
1.67969e-05
1.67969e-05
1.67969e-05
1.67725e-05
1.67969e-05
1.67725e-05
1.67725e-05
1.67725e-05
1.67725e-05
1.67725e-05
1.67725e-05
1.67725e-05
1.67725e-05
1.67725e-05
1.67725e-05
1.67725e-05
1.67725e-05
1.67725e-05
1.67725e-05
1.67725e-05
1.67725e-05
1.67725e-05
1.67725e-05
1.67725e-05
1.67725e-05
1.67725e-05
1.6748e-05
1.6748e-05
1.6748e-05
1.6748e-05
1.6748e-05
1.6748e-05
1.6748e-05
1.6748e-05
1.6748e-05
1.6748e-05
1.6748e-05
1.6748e-05
1.6748e-05
1.6748e-05
1.6748e-05
1.6748e-05
1.6748e-05
1.6748e-05
1.6748e-05
1.6748e-05
1.6748e-05
1.6748e-05
1.6748e-05
1.6748e-05
1.6748e-05
1.6748e-05
1.6748e-05
1.6748e-05
1.6748e-05
1.67236e-05
1.6748e-05
1.67236e-05
1.67236e-05
1.67236e-05
1.67236e-05
1.67236e-05
1.67236e-05
1.6748e-05
1.67236e-05
1.67236e-05
1.67236e-05
1.67236e-05
1.6748e-05
1.67236e-05
1.67236e-05
1.67236e-05
1.67236e-05
1.67236e-05
1.67236e-05
1.67236e-05
1.67236e-05
1.67236e-05
1.67236e-05
1.67236e-05
1.67236e-05
1.67236e-05
1.67236e-05
1.67236e-05
1.67236e-05
1.67236e-05
1.67236e-05
1.67236e-05
1.67236e-05
1.67236e-05
1.67236e-05
1.67236e-05
1.67236e-05
1.67236e-05
1.67236e-05
1.67236e-05
1.67236e-05
1.67236e-05
1.67236e-05
1.67236e-05
1.67236e-05
1.67236e-05
1.67236e-05
1.67236e-05
1.67236e-05
1.67236e-05
1.67236e-05
1.67236e-05
1.67236e-05
1.67236e-05
1.67236e-05
1.67236e-05
1.67236e-05
1.67236e-05
1.67236e-05
1.67236e-05
1.67236e-05
1.67236e-05
1.67236e-05
1.67236e-05
1.67236e-05
1.67236e-05
1.67236e-05
1.67236e-05
1.67236e-05
1.67236e-05
1.66992e-05
1.66992e-05
1.66992e-05
1.66992e-05
1.67236e-05
1.67236e-05
1.66992e-05
1.66992e-05
1.66992e-05
1.66992e-05
1.66992e-05
1.66992e-05
1.66992e-05
1.67236e-05
1.66992e-05
1.66992e-05
1.66992e-05
1.66992e-05
1.66992e-05
1.66992e-05
1.66992e-05
1.66992e-05
1.66992e-05
1.66992e-05
1.66992e-05
1.66992e-05
1.66992e-05
1.66992e-05
1.66992e-05
1.66992e-05
1.66992e-05
1.66992e-05
1.66992e-05
1.66992e-05
1.66992e-05
1.66992e-05
1.66992e-05
1.66992e-05
1.66992e-05
1.66992e-05
1.66992e-05
1.66992e-05
1.66992e-05
1.66992e-05
1.66992e-05
1.66992e-05
1.66992e-05
1.66992e-05
1.66992e-05
1.66992e-05
1.66992e-05
1.66992e-05
1.66992e-05
1.66992e-05
1.66748e-05
1.66748e-05
1.66992e-05
1.66992e-05
1.66992e-05
1.66992e-05
1.66992e-05
1.66748e-05
1.66992e-05
1.66992e-05
1.66992e-05
1.66992e-05
1.66992e-05
1.66992e-05
1.66992e-05
1.66992e-05
1.66992e-05
1.66992e-05
1.66992e-05
1.66992e-05
1.66992e-05
1.66992e-05
1.66992e-05
1.66992e-05
1.66992e-05
1.66992e-05
1.67236e-05
1.66992e-05
1.66992e-05
1.66992e-05
1.67236e-05
1.67236e-05
1.67236e-05
1.67236e-05
1.6748e-05
1.6748e-05
1.6748e-05
1.6748e-05
1.6748e-05
1.67725e-05
1.67725e-05
1.67725e-05
1.67969e-05
1.67969e-05
1.67969e-05
1.68213e-05
1.68213e-05
1.68213e-05
1.68457e-05
1.68701e-05
1.68701e-05
1.68701e-05
1.68945e-05
1.68945e-05
1.69189e-05
1.69434e-05
1.69434e-05
1.69678e-05
1.69678e-05
1.69922e-05
1.69922e-05
1.70166e-05
1.70166e-05
1.7041e-05
1.70654e-05
1.70654e-05
1.70898e-05
1.70898e-05
1.71143e-05
1.71143e-05
1.71387e-05
1.71631e-05
1.71631e-05
1.71875e-05
1.71875e-05
1.72119e-05
1.72119e-05
1.72363e-05
1.72607e-05
1.72607e-05
1.72852e-05
1.73096e-05
1.73096e-05
1.7334e-05
1.73584e-05
1.73584e-05
1.73584e-05
1.73828e-05
1.73828e-05
1.74316e-05
1.74316e-05
1.74561e-05
1.74805e-05
1.74805e-05
1.74805e-05
1.75049e-05
1.75293e-05
1.75537e-05
1.75537e-05
1.75537e-05
1.75781e-05
1.76025e-05
1.76025e-05
1.7627e-05
1.7627e-05
1.76514e-05
1.76758e-05
1.76758e-05
1.77002e-05
1.77002e-05
1.77246e-05
1.77246e-05
1.77246e-05
1.7749e-05
1.77734e-05
1.77734e-05
1.77734e-05
1.77979e-05
1.77979e-05
1.77979e-05
1.78223e-05
1.78467e-05
1.78467e-05
1.78711e-05
1.78711e-05
1.78711e-05
1.78955e-05
1.78955e-05
1.78955e-05
1.79199e-05
1.79443e-05
1.79443e-05
1.79687e-05
1.79687e-05
1.79687e-05
1.79932e-05
1.79932e-05
1.80176e-05
1.80176e-05
1.8042e-05
1.8042e-05
1.8042e-05
1.80664e-05
1.80664e-05
1.80908e-05
1.80908e-05
1.81152e-05
1.81152e-05
1.81152e-05
1.81396e-05
1.81396e-05
1.81641e-05
1.81641e-05
1.81885e-05
1.81885e-05
1.81885e-05
1.82129e-05
1.82373e-05
1.82373e-05
1.82617e-05
1.82617e-05
1.82617e-05
1.82617e-05
1.82861e-05
1.82861e-05
1.82861e-05
1.83105e-05
1.83105e-05
1.8335e-05
1.8335e-05
1.8335e-05
1.83594e-05
1.83594e-05
1.83594e-05
1.83594e-05
1.83838e-05
1.83838e-05
1.84082e-05
1.84082e-05
1.84082e-05
1.84082e-05
1.84326e-05
1.84326e-05
1.84326e-05
1.84326e-05
1.8457e-05
1.8457e-05
1.8457e-05
1.8457e-05
1.84814e-05
1.84814e-05
1.84814e-05
1.84814e-05
1.85059e-05
1.85059e-05
1.85059e-05
1.85303e-05
1.85303e-05
1.85303e-05
1.85303e-05
1.85303e-05
1.85303e-05
1.85547e-05
1.85547e-05
1.85547e-05
1.85547e-05
1.85547e-05
1.85547e-05
1.85791e-05
1.85791e-05
1.85791e-05
1.85791e-05
1.85791e-05
1.85791e-05
1.86035e-05
1.86035e-05
1.86035e-05
1.86035e-05
1.86035e-05
1.86279e-05
1.86279e-05
1.86279e-05
1.86279e-05
1.86279e-05
1.86279e-05
1.86279e-05
1.86279e-05
1.86279e-05
1.86279e-05
1.86279e-05
1.86523e-05
1.86523e-05
1.86523e-05
1.86279e-05
1.86523e-05
1.86523e-05
1.86523e-05
1.86523e-05
1.86523e-05
1.86523e-05
1.86523e-05
1.86523e-05
1.86523e-05
1.86523e-05
1.86523e-05
1.86523e-05
1.86523e-05
1.86523e-05
1.86523e-05
1.86523e-05
1.86523e-05
1.86523e-05
1.86523e-05
1.86523e-05
1.86523e-05
1.86523e-05
1.86523e-05
1.86523e-05
1.86523e-05
1.86523e-05
1.86279e-05
1.86279e-05
1.86523e-05
1.86523e-05
1.86523e-05
1.86279e-05
1.86523e-05
1.86279e-05
1.86279e-05
1.86279e-05
1.86279e-05
1.86279e-05
1.86279e-05
1.86279e-05
1.86279e-05
1.86279e-05
1.86035e-05
1.86035e-05
1.86035e-05
1.86035e-05
1.86035e-05
1.86035e-05
1.86035e-05
1.86035e-05
1.86035e-05
1.85791e-05
1.85791e-05
1.85791e-05
1.85791e-05
1.85791e-05
1.85791e-05
1.85791e-05
1.85791e-05
1.85791e-05
1.85547e-05
1.85547e-05
1.85547e-05
1.85547e-05
1.85547e-05
1.85547e-05
1.85303e-05
1.85547e-05
1.85547e-05
1.85547e-05
1.85547e-05
1.85303e-05
1.85303e-05
1.85303e-05
1.85303e-05
1.85303e-05
1.85303e-05
1.85303e-05
1.85059e-05
1.85059e-05
1.85059e-05
1.85059e-05
1.85059e-05
1.85059e-05
1.84814e-05
1.85059e-05
1.84814e-05
1.84814e-05
1.84814e-05
1.84814e-05
1.84814e-05
1.84814e-05
1.8457e-05
1.8457e-05
1.8457e-05
1.8457e-05
1.8457e-05
1.8457e-05
1.8457e-05
1.8457e-05
1.8457e-05
1.8457e-05
1.84326e-05
1.8457e-05
1.84326e-05
1.84326e-05
1.84326e-05
1.84326e-05
1.84326e-05
1.84326e-05
1.84326e-05
1.84326e-05
1.84326e-05
1.84326e-05
1.84326e-05
1.84082e-05
1.84082e-05
1.84082e-05
1.84082e-05
1.84082e-05
1.84082e-05
1.84082e-05
1.83838e-05
1.83838e-05
1.83838e-05
1.83838e-05
1.83838e-05
1.83838e-05
1.83838e-05
1.83838e-05
1.83838e-05
1.83838e-05
1.83838e-05
1.83838e-05
1.83594e-05
1.83838e-05
1.83838e-05
1.83594e-05
1.83594e-05
1.83594e-05
1.83594e-05
1.83594e-05
1.83594e-05
1.83594e-05
1.83594e-05
1.83594e-05
1.8335e-05
1.83594e-05
1.83594e-05
1.8335e-05
1.8335e-05
1.8335e-05
1.8335e-05
1.8335e-05
1.8335e-05
1.8335e-05
1.8335e-05
1.8335e-05
1.8335e-05
1.8335e-05
1.8335e-05
1.8335e-05
1.8335e-05
1.8335e-05
1.8335e-05
1.83105e-05
1.8335e-05
1.83105e-05
1.83105e-05
1.83105e-05
1.83105e-05
1.83105e-05
1.83105e-05
1.83105e-05
1.83105e-05
1.83105e-05
1.83105e-05
1.83105e-05
1.82861e-05
1.82861e-05
1.82861e-05
1.82861e-05
1.82861e-05
1.82861e-05
1.82861e-05
1.82861e-05
1.82861e-05
1.82861e-05
1.82861e-05
1.82617e-05
1.82861e-05
1.82861e-05
1.82617e-05
1.82617e-05
1.82617e-05
1.82617e-05
1.82617e-05
1.82617e-05
1.82617e-05
1.82617e-05
1.82617e-05
1.82617e-05
1.82617e-05
1.82617e-05
1.82617e-05
1.82617e-05
1.82617e-05
1.82617e-05
1.82617e-05
1.82617e-05
1.82617e-05
1.82617e-05
1.82617e-05
1.82617e-05
1.82373e-05
1.82617e-05
1.82617e-05
1.82373e-05
1.82373e-05
1.82617e-05
1.82373e-05
1.82373e-05
1.82373e-05
1.82373e-05
1.82373e-05
1.82373e-05
1.82373e-05
1.82373e-05
1.82373e-05
1.82373e-05
1.82373e-05
1.82373e-05
1.82373e-05
1.82373e-05
1.82373e-05
1.82373e-05
1.82373e-05
1.82373e-05
1.82373e-05
1.82373e-05
1.82373e-05
1.82373e-05
1.82373e-05
1.82373e-05
1.82373e-05
1.82373e-05
1.82373e-05
1.82373e-05
1.82373e-05
1.82373e-05
1.82373e-05
1.82373e-05
1.82373e-05
1.82373e-05
1.82373e-05
1.82373e-05
1.82373e-05
1.82373e-05
1.82373e-05
1.82373e-05
1.82129e-05
1.82373e-05
1.82129e-05
1.82373e-05
1.82373e-05
1.82373e-05
1.82129e-05
1.82129e-05
1.82373e-05
1.82129e-05
1.82373e-05
1.82129e-05
1.82129e-05
1.82129e-05
1.82129e-05
1.82129e-05
1.82129e-05
1.82129e-05
1.82129e-05
1.82129e-05
1.82129e-05
1.82129e-05
1.82129e-05
1.82129e-05
1.82129e-05
1.82129e-05
1.82129e-05
1.82129e-05
1.82129e-05
1.82129e-05
1.82129e-05
1.82129e-05
1.82129e-05
1.82129e-05
1.82129e-05
1.82129e-05
1.82129e-05
1.82129e-05
1.82129e-05
1.82129e-05
1.82129e-05
1.82129e-05
1.82129e-05
1.82129e-05
1.82129e-05
1.82129e-05
1.82129e-05
1.82129e-05
1.82129e-05
1.82129e-05
1.82129e-05
1.82129e-05
1.82129e-05
1.82129e-05
1.82129e-05
1.82129e-05
1.82129e-05
1.82129e-05
1.82129e-05
1.82129e-05
1.82129e-05
1.82129e-05
1.82129e-05
1.82129e-05
1.82129e-05
1.82129e-05
1.82129e-05
1.82129e-05
1.82129e-05
1.82129e-05
1.82129e-05
1.82129e-05
1.82129e-05
1.81885e-05
1.82129e-05
1.81885e-05
1.81885e-05
1.81885e-05
1.81885e-05
1.81885e-05
1.82129e-05
1.81885e-05
1.81885e-05
1.81885e-05
1.81885e-05
1.81885e-05
1.81885e-05
1.81885e-05
1.81885e-05
1.81885e-05
1.81885e-05
1.81885e-05
1.81885e-05
1.81885e-05
1.81885e-05
1.81885e-05
1.81885e-05
1.81885e-05
1.81885e-05
1.81885e-05
1.81885e-05
1.81885e-05
1.81885e-05
1.81885e-05
1.81641e-05
1.81885e-05
1.81885e-05
1.81885e-05
1.81885e-05
1.81885e-05
1.81885e-05
1.81885e-05
1.81885e-05
1.81885e-05
1.81885e-05
1.81885e-05
1.81885e-05
1.81885e-05
1.81885e-05
1.81885e-05
1.81885e-05
1.81885e-05
1.81885e-05
1.81885e-05
1.81885e-05
1.81885e-05
1.81885e-05
1.81885e-05
1.81885e-05
1.81885e-05
1.81885e-05
1.81885e-05
1.81885e-05
1.81885e-05
1.81885e-05
1.81885e-05
1.81885e-05
1.81885e-05
1.81885e-05
1.81885e-05
1.81885e-05
1.81885e-05
1.81885e-05
1.81885e-05
1.81885e-05
1.81885e-05
1.81885e-05
1.81885e-05
1.81885e-05
1.81885e-05
1.81885e-05
1.81885e-05
1.81885e-05
1.81885e-05
1.81885e-05
1.81885e-05
1.81885e-05
1.81885e-05
1.81885e-05
1.81885e-05
1.81885e-05
1.81885e-05
1.81885e-05
1.81885e-05
1.81885e-05
1.81885e-05
1.81885e-05
1.81885e-05
1.81885e-05
1.81641e-05
1.81641e-05
1.81885e-05
1.81885e-05
1.81641e-05
1.81885e-05
1.81885e-05
1.81641e-05
1.81885e-05
1.81885e-05
1.81885e-05
1.81641e-05
1.81885e-05
1.81885e-05
1.81885e-05
1.81885e-05
1.81641e-05
1.81885e-05
1.81885e-05
1.81885e-05
1.81641e-05
1.81885e-05
1.81885e-05
1.81885e-05
1.81885e-05
1.81885e-05
1.81885e-05
1.81885e-05
1.81885e-05
1.81885e-05
1.81885e-05
1.81885e-05
1.81885e-05
1.81885e-05
1.81885e-05
1.81885e-05
1.81885e-05
1.82129e-05
1.82129e-05
1.82129e-05
1.82129e-05
1.82373e-05
1.82373e-05
1.82373e-05
1.82373e-05
1.82373e-05
1.82373e-05
1.82617e-05
1.82617e-05
1.82617e-05
1.82617e-05
1.82617e-05
1.82861e-05
1.82861e-05
1.82861e-05
1.83105e-05
1.83105e-05
1.8335e-05
1.8335e-05
1.8335e-05
1.83594e-05
1.83594e-05
1.83594e-05
1.83594e-05
1.83838e-05
1.83838e-05
1.84082e-05
1.84326e-05
1.84326e-05
1.84326e-05
1.8457e-05
1.8457e-05
1.84814e-05
1.84814e-05
1.85059e-05
1.85059e-05
1.85303e-05
1.85547e-05
1.85547e-05
1.85547e-05
1.85791e-05
1.85791e-05
1.86035e-05
1.86279e-05
1.86279e-05
1.86523e-05
1.86523e-05
1.86768e-05
1.87012e-05
1.87012e-05
1.87256e-05
1.875e-05
1.875e-05
1.875e-05
1.87744e-05
1.87744e-05
1.87988e-05
1.87988e-05
1.88232e-05
1.88232e-05
1.88477e-05
1.88721e-05
1.88721e-05
1.88965e-05
1.88965e-05
1.89209e-05
1.89209e-05
1.89209e-05
1.89453e-05
1.89453e-05
1.89697e-05
1.89697e-05
1.89941e-05
1.90186e-05
1.90186e-05
1.9043e-05
1.9043e-05
1.9043e-05
1.90674e-05
1.90674e-05
1.90674e-05
1.90918e-05
1.90918e-05
1.91162e-05
1.91162e-05
1.91162e-05
1.91406e-05
1.91406e-05
1.91406e-05
1.91406e-05
1.9165e-05
1.9165e-05
1.9165e-05
1.91895e-05
1.91895e-05
1.91895e-05
1.92139e-05
1.92139e-05
1.92139e-05
1.92139e-05
1.92139e-05
1.92383e-05
1.92383e-05
1.92383e-05
1.92383e-05
1.92383e-05
1.92627e-05
1.92627e-05
1.92627e-05
1.92627e-05
1.92627e-05
1.92871e-05
1.92627e-05
1.92871e-05
1.92871e-05
1.92871e-05
1.92871e-05
1.92871e-05
1.92871e-05
1.92871e-05
1.92871e-05
1.92871e-05
1.93115e-05
1.93115e-05
1.92871e-05
1.93115e-05
1.92871e-05
1.92871e-05
1.92871e-05
1.93115e-05
1.93115e-05
1.93115e-05
1.93115e-05
1.93115e-05
1.93115e-05
1.93115e-05
1.93115e-05
1.93115e-05
1.93115e-05
1.93115e-05
1.93115e-05
1.92871e-05
1.93115e-05
1.93115e-05
1.92871e-05
1.93115e-05
1.92871e-05
1.92871e-05
1.92871e-05
1.92871e-05
1.92871e-05
1.92871e-05
1.92871e-05
1.92871e-05
1.92627e-05
1.92871e-05
1.92627e-05
1.92627e-05
1.92627e-05
1.92627e-05
1.92627e-05
1.92627e-05
1.92627e-05
1.92627e-05
1.92627e-05
1.92383e-05
1.92627e-05
1.92383e-05
1.92383e-05
1.92383e-05
1.92383e-05
1.92383e-05
1.92383e-05
1.92383e-05
1.92383e-05
1.92383e-05
1.92383e-05
1.92139e-05
1.92383e-05
1.92139e-05
1.92383e-05
1.92139e-05
1.92139e-05
1.92139e-05
1.92139e-05
1.92139e-05
1.92139e-05
1.91895e-05
1.92139e-05
1.92139e-05
1.91895e-05
1.91895e-05
1.91895e-05
1.91895e-05
1.91895e-05
1.91895e-05
1.9165e-05
1.9165e-05
1.9165e-05
1.9165e-05
1.9165e-05
1.9165e-05
1.9165e-05
1.9165e-05
1.9165e-05
1.9165e-05
1.9165e-05
1.91406e-05
1.91406e-05
1.91406e-05
1.91406e-05
1.91406e-05
1.91406e-05
1.91406e-05
1.91406e-05
1.91406e-05
1.91162e-05
1.91406e-05
1.91162e-05
1.91162e-05
1.91162e-05
1.91162e-05
1.91162e-05
1.91162e-05
1.91162e-05
1.91162e-05
1.90918e-05
1.91162e-05
1.90918e-05
1.90918e-05
1.90918e-05
1.90918e-05
1.90918e-05
1.90918e-05
1.90918e-05
1.90918e-05
1.90674e-05
1.90674e-05
1.90674e-05
1.90674e-05
1.90674e-05
1.9043e-05
1.90674e-05
1.9043e-05
1.90674e-05
1.90674e-05
1.90674e-05
1.9043e-05
1.9043e-05
1.9043e-05
1.9043e-05
1.9043e-05
1.9043e-05
1.9043e-05
1.9043e-05
1.9043e-05
1.90186e-05
1.90186e-05
1.90186e-05
1.90186e-05
1.90186e-05
1.90186e-05
1.90186e-05
1.90186e-05
1.90186e-05
1.90186e-05
1.90186e-05
1.90186e-05
1.90186e-05
1.89941e-05
1.89941e-05
1.89941e-05
1.89941e-05
1.89941e-05
1.89697e-05
1.89941e-05
1.89941e-05
1.89941e-05
1.89941e-05
1.89697e-05
1.89697e-05
1.89697e-05
1.89697e-05
1.89697e-05
1.89697e-05
1.89697e-05
1.89697e-05
1.89697e-05
1.89697e-05
1.89697e-05
1.89697e-05
1.89697e-05
1.89453e-05
1.89453e-05
1.89453e-05
1.89453e-05
1.89453e-05
1.89453e-05
1.89453e-05
1.89453e-05
1.89209e-05
1.89453e-05
1.89453e-05
1.89209e-05
1.89209e-05
1.89453e-05
1.89453e-05
1.89209e-05
1.89209e-05
1.89209e-05
1.89209e-05
1.89209e-05
1.89209e-05
1.89209e-05
1.89209e-05
1.89209e-05
1.89209e-05
1.89209e-05
1.89209e-05
1.89209e-05
1.89209e-05
1.89209e-05
1.89209e-05
1.89209e-05
1.89209e-05
1.89209e-05
1.89209e-05
1.89209e-05
1.89209e-05
1.89209e-05
1.89209e-05
1.89209e-05
1.89209e-05
1.89209e-05
1.89209e-05
1.89209e-05
1.88965e-05
1.88965e-05
1.88965e-05
1.88965e-05
1.88965e-05
1.88965e-05
1.88965e-05
1.89209e-05
1.88965e-05
1.88965e-05
1.88965e-05
1.88965e-05
1.88965e-05
1.88965e-05
1.88965e-05
1.88965e-05
1.88965e-05
1.88965e-05
1.88965e-05
1.88965e-05
1.88965e-05
1.88965e-05
1.88965e-05
1.88965e-05
1.88721e-05
1.88721e-05
1.88721e-05
1.88721e-05
1.88721e-05
1.88721e-05
1.88721e-05
1.88477e-05
1.88721e-05
1.88721e-05
1.88477e-05
1.88721e-05
1.88721e-05
1.88721e-05
1.88477e-05
1.88721e-05
1.88721e-05
1.88721e-05
1.88721e-05
1.88721e-05
1.88721e-05
1.88477e-05
1.88477e-05
1.88721e-05
1.88477e-05
1.88721e-05
1.88721e-05
1.88721e-05
1.88721e-05
1.88477e-05
1.88477e-05
1.88477e-05
1.88721e-05
1.88477e-05
1.88477e-05
1.88477e-05
1.88477e-05
1.88477e-05
1.88477e-05
1.88477e-05
1.88477e-05
1.88477e-05
1.88477e-05
1.88477e-05
1.88477e-05
1.88477e-05
1.88477e-05
1.88477e-05
1.88477e-05
1.88477e-05
1.88477e-05
1.88477e-05
1.88477e-05
1.88477e-05
1.88477e-05
1.88477e-05
1.88477e-05
1.88477e-05
1.88477e-05
1.88477e-05
1.88477e-05
1.88477e-05
1.88477e-05
1.88232e-05
1.88232e-05
1.88232e-05
1.88232e-05
1.88232e-05
1.88232e-05
1.88232e-05
1.88232e-05
1.88232e-05
1.88232e-05
1.88232e-05
1.88477e-05
1.88232e-05
1.88232e-05
1.88232e-05
1.88232e-05
1.88232e-05
1.88232e-05
1.88232e-05
1.88232e-05
1.88232e-05
1.88232e-05
1.88232e-05
1.88232e-05
1.88232e-05
1.88232e-05
1.88232e-05
1.88232e-05
1.88232e-05
1.88232e-05
1.88232e-05
1.88232e-05
1.88232e-05
1.88232e-05
1.87988e-05
1.88232e-05
1.87988e-05
1.87988e-05
1.87988e-05
1.87988e-05
1.87988e-05
1.87988e-05
1.87988e-05
1.87988e-05
1.87988e-05
1.87744e-05
1.87988e-05
1.87988e-05
1.87988e-05
1.87988e-05
1.87988e-05
1.87744e-05
1.87988e-05
1.87744e-05
1.87988e-05
1.87744e-05
1.87744e-05
1.87744e-05
1.87744e-05
1.87744e-05
1.87988e-05
1.87744e-05
1.87744e-05
1.87744e-05
1.87744e-05
1.87744e-05
1.87744e-05
1.87744e-05
1.87744e-05
1.87744e-05
1.87744e-05
1.87744e-05
1.87744e-05
1.87988e-05
1.87744e-05
1.87988e-05
1.87744e-05
1.87744e-05
1.87744e-05
1.87744e-05
1.87744e-05
1.87744e-05
1.87744e-05
1.87744e-05
1.87744e-05
1.87744e-05
1.87744e-05
1.87744e-05
1.87744e-05
1.87744e-05
1.87744e-05
1.87744e-05
1.87744e-05
1.87744e-05
1.87744e-05
1.87744e-05
1.87744e-05
1.87744e-05
1.87744e-05
1.87744e-05
1.87744e-05
1.87744e-05
1.87744e-05
1.87744e-05
1.87744e-05
1.87744e-05
1.875e-05
1.875e-05
1.87744e-05
1.875e-05
1.875e-05
1.875e-05
1.875e-05
1.875e-05
1.875e-05
1.875e-05
1.875e-05
1.875e-05
1.875e-05
1.875e-05
1.875e-05
1.875e-05
1.875e-05
1.875e-05
1.875e-05
1.875e-05
1.875e-05
1.875e-05
1.875e-05
1.875e-05
1.875e-05
1.875e-05
1.875e-05
1.875e-05
1.875e-05
1.875e-05
1.875e-05
1.875e-05
1.875e-05
1.875e-05
1.875e-05
1.875e-05
1.875e-05
1.875e-05
1.875e-05
1.875e-05
1.875e-05
1.875e-05
1.875e-05
1.875e-05
1.875e-05
1.875e-05
1.87256e-05
1.875e-05
1.875e-05
1.87256e-05
1.87256e-05
1.87256e-05
1.87256e-05
1.87256e-05
1.875e-05
1.87256e-05
1.87256e-05
1.875e-05
1.87256e-05
1.87256e-05
1.87256e-05
1.87256e-05
1.87256e-05
1.87256e-05
1.87256e-05
1.87256e-05
1.87256e-05
1.87256e-05
1.87256e-05
1.87256e-05
1.87012e-05
1.87256e-05
1.87256e-05
1.87256e-05
1.87256e-05
1.87012e-05
1.87256e-05
1.87012e-05
1.87256e-05
1.87012e-05
1.87012e-05
1.87012e-05
1.87012e-05
1.87012e-05
1.87012e-05
1.87012e-05
1.87012e-05
1.87012e-05
1.87012e-05
1.87012e-05
1.87012e-05
1.87012e-05
1.87012e-05
1.87012e-05
1.87012e-05
1.87012e-05
1.87012e-05
1.87012e-05
1.87012e-05
1.87012e-05
1.87012e-05
1.87012e-05
1.87012e-05
1.87012e-05
1.87012e-05
1.87012e-05
1.87012e-05
1.87012e-05
1.87012e-05
1.87012e-05
1.86768e-05
1.86768e-05
1.86768e-05
1.86768e-05
1.87012e-05
1.87012e-05
1.86768e-05
1.86768e-05
1.87012e-05
1.86768e-05
1.86768e-05
1.86768e-05
1.86768e-05
1.86768e-05
1.86768e-05
1.86768e-05
1.86768e-05
1.86768e-05
1.86768e-05
1.86768e-05
1.87012e-05
1.86768e-05
1.86768e-05
1.86768e-05
1.86768e-05
1.86768e-05
1.86768e-05
1.86768e-05
1.86768e-05
1.86768e-05
1.86768e-05
1.86768e-05
1.86523e-05
1.86768e-05
1.86768e-05
1.86768e-05
1.86768e-05
1.86768e-05
1.86768e-05
1.86768e-05
1.86768e-05
1.86768e-05
1.86768e-05
1.86768e-05
1.86768e-05
1.86523e-05
1.86523e-05
1.86523e-05
1.86768e-05
1.86523e-05
1.86768e-05
1.86523e-05
1.86768e-05
1.86523e-05
1.86523e-05
1.86768e-05
1.86523e-05
1.86523e-05
1.86768e-05
1.86768e-05
1.86523e-05
1.86523e-05
1.86523e-05
1.86523e-05
1.86768e-05
1.86523e-05
1.86523e-05
1.86523e-05
1.86523e-05
1.86523e-05
1.86523e-05
1.86523e-05
1.86768e-05
1.86523e-05
1.86523e-05
1.86768e-05
1.86523e-05
1.86523e-05
1.86768e-05
1.86523e-05
1.86523e-05
1.86523e-05
1.86523e-05
1.86523e-05
1.86768e-05
1.86523e-05
1.86523e-05
1.86523e-05
1.86768e-05
1.86523e-05
1.86523e-05
1.86523e-05
1.86523e-05
1.86523e-05
1.86523e-05
1.86523e-05
1.86523e-05
1.86523e-05
1.86523e-05
1.86523e-05
1.86768e-05
1.86523e-05
1.86523e-05
1.86523e-05
1.86523e-05
1.86523e-05
1.86523e-05
1.86523e-05
1.86523e-05
1.86523e-05
1.86523e-05
1.86523e-05
1.86523e-05
1.86523e-05
1.86523e-05
1.86523e-05
1.86523e-05
1.86523e-05
1.86523e-05
1.86523e-05
1.86523e-05
1.86523e-05
1.86523e-05
1.86523e-05
1.86523e-05
1.86523e-05
1.86523e-05
1.86523e-05
1.86523e-05
1.86523e-05
1.86523e-05
1.86523e-05
1.86523e-05
1.86523e-05
1.86523e-05
1.86523e-05
1.86523e-05
1.86523e-05
1.86523e-05
1.86523e-05
1.86523e-05
1.86523e-05
1.86523e-05
1.86523e-05
1.86523e-05
1.86279e-05
1.86279e-05
1.86279e-05
1.86523e-05
1.86279e-05
1.86279e-05
1.86279e-05
1.86279e-05
1.86279e-05
1.86279e-05
1.86279e-05
1.86279e-05
1.86279e-05
1.86279e-05
1.86279e-05
1.86279e-05
1.86279e-05
1.86279e-05
1.86279e-05
1.86279e-05
1.86279e-05
1.86279e-05
1.86279e-05
1.86279e-05
1.86279e-05
1.86279e-05
1.86279e-05
1.86279e-05
1.86279e-05
1.86279e-05
1.86279e-05
1.86279e-05
1.86279e-05
1.86035e-05
1.86279e-05
1.86279e-05
1.86279e-05
1.86279e-05
1.86279e-05
1.86279e-05
1.86279e-05
1.86035e-05
1.86035e-05
1.86279e-05
1.86035e-05
1.86035e-05
1.86035e-05
1.86035e-05
1.86279e-05
1.86279e-05
1.86035e-05
1.86279e-05
1.86035e-05
1.86035e-05
1.86035e-05
1.86035e-05
1.86035e-05
1.86035e-05
1.86035e-05
1.86035e-05
1.86035e-05
1.86035e-05
1.86035e-05
1.86035e-05
1.86035e-05
1.86035e-05
1.86035e-05
1.86035e-05
1.85791e-05
1.85791e-05
1.85791e-05
1.85791e-05
1.85791e-05
1.85791e-05
1.86035e-05
1.85791e-05
1.86035e-05
1.85791e-05
1.86035e-05
1.86035e-05
1.86035e-05
1.85791e-05
1.85791e-05
1.85791e-05
1.85791e-05
1.85791e-05
1.85791e-05
1.85791e-05
1.85791e-05
1.85791e-05
1.85791e-05
1.85791e-05
1.85791e-05
1.85791e-05
1.85791e-05
1.85791e-05
1.85791e-05
1.85791e-05
1.85791e-05
1.85791e-05
1.85791e-05
1.85791e-05
1.85791e-05
1.85791e-05
1.85791e-05
1.85791e-05
1.85791e-05
1.85791e-05
1.85791e-05
1.85791e-05
1.85791e-05
1.85791e-05
1.85791e-05
1.85791e-05
1.85791e-05
1.85791e-05
1.85791e-05
1.85791e-05
1.85547e-05
1.85791e-05
1.85547e-05
1.85791e-05
1.85547e-05
1.85791e-05
1.85791e-05
1.85791e-05
1.85547e-05
1.85791e-05
1.85547e-05
1.85547e-05
1.85547e-05
1.85547e-05
1.85547e-05
1.85547e-05
1.85547e-05
1.85547e-05
1.85547e-05
1.85547e-05
1.85547e-05
1.85547e-05
1.85547e-05
1.85547e-05
1.85547e-05
1.85547e-05
1.85547e-05
1.85547e-05
1.85547e-05
1.85547e-05
1.85547e-05
1.85547e-05
1.85547e-05
1.85547e-05
1.85547e-05
1.85547e-05
1.85547e-05
1.85547e-05
1.85547e-05
1.85547e-05
1.85547e-05
1.85547e-05
1.85547e-05
1.85547e-05
1.85547e-05
1.85547e-05
1.85547e-05
1.85547e-05
1.85547e-05
1.85547e-05
1.85547e-05
1.85547e-05
1.85547e-05
1.85547e-05
1.85547e-05
1.85547e-05
1.85547e-05
1.85547e-05
1.85303e-05
1.85303e-05
1.85547e-05
1.85547e-05
1.85303e-05
1.85547e-05
1.85303e-05
1.85303e-05
1.85303e-05
1.85303e-05
1.85303e-05
1.85303e-05
1.85303e-05
1.85303e-05
1.85303e-05
1.85059e-05
1.85303e-05
1.85303e-05
1.85303e-05
1.85303e-05
1.85303e-05
1.85303e-05
1.85303e-05
1.85059e-05
1.85303e-05
1.85303e-05
1.85303e-05
1.85303e-05
1.85303e-05
1.85303e-05
1.85059e-05
1.85303e-05
1.85303e-05
1.85303e-05
1.85303e-05
1.85303e-05
1.85303e-05
1.85303e-05
1.85303e-05
1.85303e-05
1.85303e-05
1.85303e-05
1.85303e-05
1.85303e-05
1.85303e-05
1.85303e-05
1.85303e-05
1.85303e-05
1.85303e-05
1.85303e-05
1.85303e-05
1.85059e-05
1.85303e-05
1.85303e-05
1.85303e-05
1.85303e-05
1.85303e-05
1.85303e-05
1.85059e-05
1.85303e-05
1.85059e-05
1.85059e-05
1.85059e-05
1.85059e-05
1.85059e-05
1.85059e-05
1.85059e-05
1.85059e-05
1.85059e-05
1.85059e-05
1.85059e-05
1.85059e-05
1.85059e-05
1.85059e-05
1.85059e-05
1.84814e-05
1.85059e-05
1.85059e-05
1.85059e-05
1.85059e-05
1.85059e-05
1.85059e-05
1.85059e-05
1.85059e-05
1.85059e-05
1.85059e-05
1.85059e-05
1.85059e-05
1.85059e-05
1.85059e-05
1.85059e-05
1.85059e-05
1.85059e-05
1.85059e-05
1.85059e-05
1.84814e-05
1.84814e-05
1.84814e-05
1.84814e-05
1.84814e-05
1.84814e-05
1.84814e-05
1.84814e-05
1.84814e-05
1.84814e-05
1.84814e-05
1.84814e-05
1.84814e-05
1.84814e-05
1.84814e-05
1.84814e-05
1.8457e-05
1.84814e-05
1.84814e-05
1.84814e-05
1.84814e-05
1.84814e-05
1.84814e-05
1.84814e-05
1.84814e-05
1.84814e-05
1.8457e-05
1.84814e-05
1.84814e-05
1.84814e-05
1.84814e-05
1.84814e-05
1.84814e-05
1.84814e-05
1.84814e-05
1.84814e-05
1.84814e-05
1.84814e-05
1.84814e-05
1.84814e-05
1.84814e-05
1.84814e-05
1.84814e-05
1.84814e-05
1.84814e-05
1.84814e-05
1.84814e-05
1.84814e-05
1.84814e-05
1.84814e-05
1.84814e-05
1.84814e-05
1.84814e-05
1.84814e-05
1.84814e-05
1.84814e-05
1.84814e-05
1.8457e-05
1.8457e-05
1.8457e-05
1.8457e-05
1.84326e-05
1.84326e-05
1.84326e-05
1.84326e-05
1.84326e-05
1.84326e-05
1.84326e-05
1.84326e-05
1.84082e-05
1.84082e-05
1.84082e-05
1.84082e-05
1.83838e-05
1.83838e-05
1.83838e-05
1.83594e-05
1.83838e-05
1.83838e-05
1.83594e-05
1.83594e-05
1.83594e-05
1.83594e-05
1.83594e-05
1.83594e-05
1.8335e-05
1.8335e-05
1.8335e-05
1.8335e-05
1.8335e-05
1.83105e-05
1.83105e-05
1.82861e-05
1.83105e-05
1.82861e-05
1.82861e-05
1.82861e-05
1.82617e-05
1.82617e-05
1.82617e-05
1.82617e-05
1.82617e-05
1.82373e-05
1.82373e-05
1.82617e-05
1.82617e-05
1.82617e-05
1.82617e-05
1.82617e-05
1.82617e-05
1.82617e-05
1.82617e-05
1.82861e-05
1.82617e-05
1.82617e-05
1.82861e-05
1.82861e-05
1.82861e-05
1.82861e-05
1.82861e-05
1.83105e-05
1.83105e-05
1.83105e-05
1.83105e-05
1.83105e-05
1.83105e-05
1.83105e-05
1.83105e-05
1.83105e-05
1.8335e-05
1.8335e-05
1.8335e-05
1.8335e-05
1.8335e-05
1.8335e-05
1.8335e-05
1.83105e-05
1.8335e-05
1.8335e-05
1.8335e-05
1.83594e-05
1.83594e-05
1.83594e-05
1.83594e-05
1.83594e-05
1.83594e-05
1.83594e-05
1.83594e-05
1.83594e-05
1.83594e-05
1.83594e-05
1.83594e-05
1.83594e-05
1.83594e-05
1.83594e-05
1.83594e-05
1.83594e-05
1.83594e-05
1.83594e-05
1.83594e-05
1.83594e-05
1.83594e-05
1.83594e-05
1.83594e-05
1.83594e-05
1.83594e-05
1.83594e-05
1.83594e-05
1.83594e-05
1.83594e-05
1.83594e-05
1.83594e-05
1.83594e-05
1.83594e-05
1.83594e-05
1.83594e-05
1.83594e-05
1.83594e-05
1.83594e-05
1.83594e-05
1.83838e-05
1.83838e-05
1.83838e-05
1.83838e-05
1.83838e-05
1.83838e-05
1.83838e-05
1.83838e-05
1.83838e-05
1.83838e-05
1.83838e-05
1.83838e-05
1.83594e-05
1.83838e-05
1.83838e-05
1.83838e-05
1.83594e-05
1.83838e-05
1.83838e-05
1.83838e-05
1.83838e-05
1.83838e-05
1.83594e-05
1.83838e-05
1.83594e-05
1.83838e-05
1.83838e-05
1.83838e-05
1.83838e-05
1.83838e-05
1.83838e-05
1.83838e-05
1.83838e-05
1.83838e-05
1.83838e-05
1.83838e-05
1.84082e-05
1.83838e-05
1.83838e-05
1.84082e-05
1.84082e-05
1.84082e-05
1.84082e-05
1.84082e-05
1.84082e-05
1.84082e-05
1.84082e-05
1.84082e-05
1.84082e-05
1.84082e-05
1.84326e-05
1.84082e-05
1.84082e-05
1.84326e-05
1.84326e-05
1.84326e-05
1.84326e-05
1.84326e-05
1.84326e-05
1.84326e-05
1.84326e-05
1.84326e-05
1.84326e-05
1.84326e-05
1.84326e-05
1.84326e-05
1.84326e-05
1.84326e-05
1.84326e-05
1.84326e-05
1.84326e-05
1.84326e-05
1.84326e-05
1.84326e-05
1.84326e-05
1.8457e-05
1.8457e-05
1.84326e-05
1.84326e-05
1.8457e-05
1.8457e-05
1.84326e-05
1.8457e-05
1.84326e-05
1.8457e-05
1.84326e-05
1.84326e-05
1.8457e-05
1.8457e-05
1.8457e-05
1.8457e-05
1.8457e-05
1.8457e-05
1.84326e-05
1.8457e-05
1.84326e-05
1.8457e-05
1.8457e-05
1.8457e-05
1.8457e-05
1.8457e-05
1.8457e-05
1.8457e-05
1.8457e-05
1.8457e-05
1.8457e-05
1.8457e-05
1.8457e-05
1.8457e-05
1.8457e-05
1.8457e-05
1.8457e-05
1.8457e-05
1.8457e-05
1.8457e-05
1.8457e-05
1.8457e-05
1.8457e-05
1.8457e-05
1.8457e-05
1.8457e-05
1.8457e-05
1.8457e-05
1.8457e-05
1.84326e-05
1.8457e-05
1.8457e-05
1.8457e-05
1.8457e-05
1.84326e-05
1.8457e-05
1.8457e-05
1.84326e-05
1.84326e-05
1.84326e-05
1.84326e-05
1.84326e-05
1.8457e-05
1.84326e-05
1.84326e-05
1.8457e-05
1.8457e-05
1.84326e-05
1.84326e-05
1.8457e-05
1.84326e-05
1.84326e-05
1.84326e-05
1.84326e-05
1.84326e-05
1.84326e-05
1.84326e-05
1.84326e-05
1.84326e-05
1.84326e-05
1.84326e-05
1.84326e-05
1.84326e-05
1.84326e-05
1.84326e-05
1.84082e-05
1.84326e-05
1.84326e-05
1.84326e-05
1.84326e-05
1.84326e-05
1.84082e-05
1.84326e-05
1.84326e-05
1.84082e-05
1.84082e-05
1.84082e-05
1.84082e-05
1.83838e-05
1.83838e-05
1.83838e-05
1.83594e-05
1.83838e-05
1.83838e-05
1.83838e-05
1.83838e-05
1.83594e-05
1.83838e-05
1.83594e-05
1.83594e-05
1.83594e-05
1.83594e-05
1.83594e-05
1.83594e-05
1.83594e-05
1.83594e-05
1.83594e-05
1.83594e-05
1.83594e-05
1.83594e-05
1.83594e-05
1.83594e-05
1.83594e-05
1.83594e-05
1.8335e-05
1.83594e-05
1.8335e-05
1.83594e-05
1.8335e-05
1.8335e-05
1.8335e-05
1.8335e-05
1.8335e-05
1.8335e-05
1.8335e-05
1.8335e-05
1.8335e-05
1.8335e-05
1.8335e-05
1.8335e-05
1.8335e-05
1.8335e-05
1.8335e-05
1.83105e-05
1.8335e-05
1.8335e-05
1.8335e-05
1.8335e-05
1.8335e-05
1.8335e-05
1.8335e-05
1.8335e-05
1.8335e-05
1.8335e-05
1.8335e-05
1.83105e-05
1.83105e-05
1.83105e-05
1.83105e-05
1.83105e-05
1.83105e-05
1.83105e-05
1.82861e-05
1.82861e-05
1.82861e-05
1.82861e-05
1.82617e-05
1.82617e-05
1.82373e-05
1.82373e-05
1.82129e-05
1.82129e-05
1.82129e-05
1.81641e-05
1.81641e-05
1.81641e-05
1.81641e-05
1.81641e-05
1.81396e-05
1.81396e-05
1.81396e-05
1.81396e-05
1.81396e-05
1.81396e-05
1.81396e-05
1.81152e-05
1.81152e-05
1.81152e-05
1.81152e-05
1.81152e-05
1.81152e-05
1.81152e-05
1.80908e-05
1.80908e-05
1.80908e-05
1.81152e-05
1.81152e-05
1.81152e-05
1.80908e-05
1.81152e-05
1.81152e-05
1.81152e-05
1.81152e-05
1.81152e-05
1.81152e-05
1.81396e-05
1.81152e-05
1.81152e-05
1.81152e-05
1.81396e-05
1.81152e-05
1.81152e-05
1.81396e-05
1.81396e-05
1.81396e-05
1.81396e-05
1.81396e-05
1.81396e-05
1.81396e-05
1.81396e-05
1.81396e-05
1.81396e-05
1.81396e-05
1.81396e-05
1.81396e-05
1.81396e-05
1.81641e-05
1.81641e-05
1.81885e-05
1.81885e-05
1.81885e-05
1.82129e-05
1.82129e-05
1.82373e-05
1.82373e-05
1.82373e-05
1.82373e-05
1.82617e-05
1.82617e-05
1.82617e-05
1.82617e-05
1.82617e-05
1.82617e-05
1.82617e-05
1.82617e-05
1.82617e-05
1.82617e-05
1.82861e-05
1.82861e-05
1.82861e-05
1.82861e-05
1.82861e-05
1.82861e-05
1.82861e-05
1.82861e-05
1.82617e-05
1.82617e-05
1.82617e-05
1.82617e-05
1.82617e-05
1.82617e-05
1.82617e-05
1.82373e-05
1.82373e-05
1.82129e-05
1.82373e-05
1.82129e-05
1.82129e-05
1.82129e-05
1.81885e-05
1.82129e-05
1.81885e-05
1.81885e-05
1.81885e-05
1.81885e-05
1.81885e-05
1.81885e-05
1.81885e-05
1.81885e-05
1.81885e-05
1.81885e-05
1.81885e-05
1.81641e-05
1.81641e-05
1.81641e-05
1.81641e-05
1.81641e-05
1.81641e-05
1.81641e-05
1.81396e-05
1.81396e-05
1.81396e-05
1.81396e-05
1.81396e-05
1.81396e-05
1.81152e-05
1.81152e-05
1.81152e-05
1.81152e-05
1.81152e-05
1.81152e-05
1.81152e-05
1.80908e-05
1.80908e-05
1.80908e-05
1.80908e-05
1.80908e-05
1.80908e-05
1.80908e-05
1.80908e-05
1.81152e-05
1.80908e-05
1.81152e-05
1.81152e-05
1.81152e-05
1.81152e-05
1.81396e-05
1.81396e-05
1.81396e-05
1.81396e-05
1.81396e-05
1.81396e-05
1.81396e-05
1.81641e-05
1.81641e-05
1.81641e-05
1.81641e-05
1.81396e-05
1.81641e-05
1.81641e-05
1.81396e-05
1.81641e-05
1.81396e-05
1.81396e-05
1.81396e-05
1.81396e-05
1.81396e-05
1.81396e-05
1.81396e-05
1.81396e-05
1.81396e-05
1.81396e-05
1.81396e-05
1.81396e-05
1.81396e-05
1.81396e-05
1.81396e-05
1.81396e-05
1.81396e-05
1.81396e-05
1.81396e-05
1.81641e-05
1.81641e-05
1.81641e-05
1.81641e-05
1.81885e-05
1.81885e-05
1.82129e-05
1.82373e-05
1.82373e-05
1.82617e-05
1.82617e-05
1.82861e-05
1.83105e-05
1.8335e-05
1.8335e-05
1.83594e-05
1.83838e-05
1.84082e-05
1.84326e-05
1.8457e-05
1.84814e-05
1.85059e-05
1.85303e-05
1.85547e-05
1.85791e-05
1.86035e-05
1.86279e-05
1.86523e-05
1.86768e-05
1.87012e-05
1.87256e-05
1.875e-05
1.87744e-05
1.88232e-05
1.88232e-05
1.88721e-05
1.89209e-05
1.89453e-05
1.89697e-05
1.90186e-05
1.9043e-05
1.90674e-05
1.91162e-05
1.91406e-05
1.91895e-05
1.92139e-05
1.92627e-05
1.92871e-05
1.93359e-05
1.93604e-05
1.94092e-05
1.94336e-05
1.94824e-05
1.95068e-05
1.95313e-05
1.95557e-05
1.96045e-05
1.96289e-05
1.96777e-05
1.97021e-05
1.97266e-05
1.9751e-05
1.97998e-05
1.98242e-05
1.98486e-05
1.9873e-05
1.98975e-05
1.99463e-05
1.99707e-05
1.99951e-05
2.00195e-05
2.00439e-05
2.00684e-05
2.00928e-05
2.00928e-05
2.01172e-05
2.01172e-05
2.01416e-05
2.0166e-05
2.0166e-05
2.01904e-05
2.01904e-05
2.02148e-05
2.01904e-05
2.02148e-05
2.02148e-05
2.02148e-05
2.02148e-05
2.02393e-05
2.02393e-05
2.02393e-05
2.02393e-05
2.02637e-05
2.02637e-05
2.02637e-05
2.02637e-05
2.02881e-05
2.02881e-05
2.02881e-05
2.03125e-05
2.03125e-05
2.03369e-05
2.03613e-05
2.03857e-05
2.04102e-05
2.04102e-05
2.04346e-05
2.0459e-05
2.04834e-05
2.04834e-05
2.04834e-05
2.05078e-05
2.05322e-05
2.05322e-05
2.05566e-05
2.05566e-05
2.05811e-05
2.05811e-05
2.06055e-05
2.06055e-05
2.06055e-05
2.06299e-05
2.06299e-05
2.06299e-05
2.06543e-05
2.06543e-05
2.06787e-05
2.06787e-05
2.06787e-05
2.06787e-05
2.06787e-05
2.07031e-05
2.07031e-05
2.07275e-05
2.07275e-05
2.07275e-05
2.07275e-05
2.07275e-05
2.07275e-05
2.0752e-05
2.0752e-05
2.0752e-05
2.0752e-05
2.0752e-05
2.07764e-05
2.07764e-05
2.07764e-05
2.07764e-05
2.07764e-05
2.07764e-05
2.07764e-05
2.07764e-05
2.07764e-05
2.07764e-05
2.08008e-05
2.08008e-05
2.08008e-05
2.08008e-05
2.08008e-05
2.08008e-05
2.07764e-05
2.08008e-05
2.08008e-05
2.08008e-05
2.08008e-05
2.08008e-05
2.08008e-05
2.08008e-05
2.08252e-05
2.08008e-05
2.08008e-05
2.08008e-05
2.08008e-05
2.08008e-05
2.08008e-05
2.08252e-05
2.08252e-05
2.08252e-05
2.08252e-05
2.08252e-05
2.08252e-05
2.08496e-05
2.08496e-05
2.08496e-05
2.08496e-05
2.0874e-05
2.0874e-05
2.0874e-05
2.0874e-05
2.0874e-05
2.08984e-05
2.08984e-05
2.08984e-05
2.08984e-05
2.08984e-05
2.09229e-05
2.08984e-05
2.09229e-05
2.09229e-05
2.09229e-05
2.09229e-05
2.09229e-05
2.09229e-05
2.09473e-05
2.09229e-05
2.09473e-05
2.09473e-05
2.09473e-05
2.09473e-05
2.09473e-05
2.09717e-05
2.09717e-05
2.09717e-05
2.09717e-05
2.09961e-05
2.09961e-05
2.09961e-05
2.09961e-05
2.09961e-05
2.10205e-05
2.10205e-05
2.10205e-05
2.10449e-05
2.10449e-05
2.10449e-05
2.10449e-05
2.10693e-05
2.10693e-05
2.10937e-05
2.10937e-05
2.11182e-05
2.11182e-05
2.11426e-05
2.11426e-05
2.1167e-05
2.11914e-05
2.11914e-05
2.12158e-05
2.12402e-05
2.12402e-05
2.12646e-05
2.12891e-05
2.12891e-05
2.13379e-05
2.13379e-05
2.13623e-05
2.13623e-05
2.14111e-05
2.14355e-05
2.146e-05
2.146e-05
2.14844e-05
2.15088e-05
2.15332e-05
2.15576e-05
2.15576e-05
2.1582e-05
2.16064e-05
2.16309e-05
2.16553e-05
2.16797e-05
2.17041e-05
2.17285e-05
2.17529e-05
2.17773e-05
2.18018e-05
2.18018e-05
2.18262e-05
2.18506e-05
2.1875e-05
2.18994e-05
2.19238e-05
2.19482e-05
2.19727e-05
2.19971e-05
2.20215e-05
2.20215e-05
2.20459e-05
