1.5625e-05
1.5625e-05
1.56494e-05
1.5625e-05
1.5625e-05
1.5625e-05
1.5625e-05
1.56494e-05
1.5625e-05
1.5625e-05
1.5625e-05
1.5625e-05
1.56006e-05
1.56006e-05
1.5625e-05
1.5625e-05
1.56006e-05
1.56006e-05
1.5625e-05
1.56006e-05
1.56006e-05
1.56006e-05
1.56006e-05
1.56006e-05
1.56006e-05
1.56006e-05
1.56006e-05
1.56006e-05
1.55762e-05
1.56006e-05
1.55762e-05
1.55762e-05
1.55762e-05
1.55762e-05
1.55762e-05
1.55762e-05
1.55762e-05
1.55762e-05
1.55762e-05
1.55762e-05
1.55762e-05
1.55762e-05
1.55762e-05
1.55762e-05
1.55518e-05
1.55518e-05
1.55518e-05
1.55518e-05
1.55518e-05
1.55518e-05
1.55518e-05
1.55518e-05
1.55518e-05
1.55518e-05
1.55518e-05
1.55518e-05
1.55273e-05
1.55273e-05
1.55273e-05
1.55273e-05
1.55273e-05
1.55273e-05
1.55273e-05
1.55273e-05
1.55273e-05
1.55273e-05
1.55273e-05
1.55029e-05
1.55273e-05
1.55273e-05
1.55029e-05
1.55029e-05
1.55029e-05
1.55029e-05
1.55029e-05
1.55029e-05
1.55029e-05
1.55029e-05
1.55029e-05
1.55029e-05
1.54785e-05
1.55029e-05
1.54785e-05
1.54785e-05
1.54785e-05
1.55029e-05
1.54785e-05
1.54785e-05
1.54541e-05
1.54785e-05
1.54785e-05
1.54785e-05
1.54541e-05
1.54541e-05
1.54541e-05
1.54541e-05
1.54541e-05
1.54541e-05
1.54297e-05
1.54541e-05
1.54541e-05
1.54541e-05
1.54541e-05
1.54541e-05
1.54297e-05
1.54541e-05
1.54297e-05
1.54297e-05
1.54297e-05
1.54297e-05
1.54297e-05
1.54297e-05
1.54297e-05
1.54297e-05
1.54297e-05
1.54297e-05
1.54297e-05
1.54297e-05
1.54053e-05
1.54053e-05
1.54053e-05
1.54053e-05
1.54053e-05
1.54053e-05
1.54053e-05
1.54053e-05
1.54053e-05
1.54053e-05
1.54053e-05
1.54053e-05
1.54053e-05
1.53809e-05
1.53809e-05
1.53809e-05
1.53809e-05
1.53809e-05
1.53564e-05
1.53809e-05
1.53809e-05
1.53809e-05
1.53809e-05
1.53809e-05
1.53564e-05
1.53809e-05
1.53564e-05
1.53564e-05
1.53564e-05
1.53564e-05
1.53564e-05
1.5332e-05
1.53564e-05
1.53564e-05
1.5332e-05
1.5332e-05
1.5332e-05
1.5332e-05
1.5332e-05
1.5332e-05
1.5332e-05
1.5332e-05
1.5332e-05
1.5332e-05
1.5332e-05
1.5332e-05
1.53076e-05
1.5332e-05
1.53076e-05
1.53076e-05
1.53076e-05
1.53076e-05
1.53076e-05
1.53076e-05
1.53076e-05
1.53076e-05
1.53076e-05
1.53076e-05
1.53076e-05
1.53076e-05
1.52832e-05
1.53076e-05
1.52832e-05
1.52832e-05
1.52832e-05
1.52832e-05
1.52832e-05
1.52832e-05
1.52832e-05
1.52832e-05
1.52832e-05
1.52588e-05
1.52588e-05
1.52588e-05
1.52588e-05
1.52588e-05
1.52588e-05
1.52588e-05
1.52588e-05
1.52588e-05
1.52588e-05
1.52588e-05
1.52344e-05
1.52588e-05
1.52588e-05
1.52588e-05
1.52344e-05
1.52344e-05
1.52344e-05
1.52344e-05
1.52344e-05
1.52344e-05
1.52344e-05
1.52344e-05
1.52344e-05
1.52344e-05
1.52344e-05
1.52344e-05
1.521e-05
1.52344e-05
1.52344e-05
1.521e-05
1.521e-05
1.521e-05
1.52344e-05
1.521e-05
1.521e-05
1.521e-05
1.521e-05
1.521e-05
1.521e-05
1.521e-05
1.521e-05
1.51855e-05
1.51855e-05
1.51855e-05
1.51855e-05
1.51855e-05
1.51855e-05
1.51855e-05
1.51855e-05
1.51855e-05
1.51855e-05
1.51855e-05
1.51855e-05
1.51855e-05
1.51855e-05
1.51855e-05
1.51855e-05
1.51855e-05
1.51611e-05
1.51611e-05
1.51611e-05
1.51611e-05
1.51611e-05
1.51611e-05
1.51611e-05
1.51611e-05
1.51611e-05
1.51611e-05
1.51611e-05
1.51611e-05
1.51611e-05
1.51367e-05
1.51611e-05
1.51611e-05
1.51367e-05
1.51611e-05
1.51611e-05
1.51367e-05
1.51367e-05
1.51367e-05
1.51367e-05
1.51367e-05
1.51367e-05
1.51367e-05
1.51367e-05
1.51367e-05
1.51367e-05
1.51367e-05
1.51367e-05
1.51367e-05
1.51367e-05
1.51367e-05
1.51123e-05
1.51367e-05
1.51367e-05
1.51123e-05
1.51123e-05
1.51367e-05
1.51123e-05
1.51367e-05
1.51123e-05
1.51123e-05
1.51123e-05
1.51123e-05
1.51123e-05
1.51123e-05
1.51123e-05
1.51123e-05
1.51123e-05
1.51123e-05
1.51123e-05
1.51123e-05
1.51123e-05
1.51123e-05
1.51123e-05
1.51123e-05
1.51123e-05
1.51123e-05
1.51123e-05
1.51123e-05
1.51123e-05
1.51123e-05
1.51123e-05
1.51123e-05
1.51123e-05
1.51123e-05
1.51123e-05
1.51123e-05
1.51123e-05
1.51123e-05
1.51123e-05
1.51123e-05
1.51123e-05
1.51123e-05
1.51123e-05
1.51123e-05
1.51123e-05
1.51123e-05
1.51123e-05
1.51123e-05
1.51123e-05
1.51367e-05
1.51123e-05
1.51367e-05
1.51367e-05
1.51367e-05
1.51367e-05
1.51367e-05
1.51367e-05
1.51367e-05
1.51123e-05
1.51123e-05
1.51123e-05
1.51367e-05
1.51367e-05
1.51367e-05
1.51367e-05
1.51123e-05
1.51367e-05
1.51123e-05
1.51367e-05
1.51123e-05
1.51367e-05
1.51367e-05
1.51367e-05
1.51367e-05
1.51123e-05
1.51367e-05
1.51367e-05
1.51367e-05
1.51367e-05
1.51367e-05
1.51367e-05
1.51367e-05
1.51367e-05
1.51367e-05
1.51367e-05
1.51367e-05
1.51367e-05
1.51367e-05
1.51367e-05
1.51367e-05
1.51367e-05
1.51367e-05
1.51123e-05
1.51367e-05
1.51367e-05
1.51367e-05
1.51367e-05
1.51367e-05
1.51123e-05
1.51123e-05
1.51367e-05
1.51367e-05
1.51123e-05
1.51367e-05
1.51367e-05
1.51367e-05
1.51367e-05
1.51367e-05
1.51367e-05
1.51367e-05
1.51123e-05
1.51367e-05
1.51367e-05
1.51367e-05
1.51123e-05
1.51367e-05
1.51367e-05
1.51367e-05
1.51367e-05
1.51367e-05
1.51123e-05
1.51367e-05
1.51123e-05
1.51367e-05
1.51367e-05
1.51123e-05
1.51123e-05
1.51123e-05
1.51123e-05
1.51123e-05
1.51123e-05
1.51123e-05
1.51123e-05
1.51123e-05
1.51123e-05
1.51123e-05
1.51123e-05
1.51123e-05
1.51123e-05
1.51123e-05
1.51123e-05
1.51123e-05
1.50879e-05
1.51123e-05
1.51123e-05
1.51123e-05
1.50879e-05
1.50879e-05
1.50879e-05
1.51123e-05
1.50879e-05
1.50879e-05
1.51123e-05
1.50879e-05
1.50879e-05
1.51123e-05
1.51123e-05
1.50879e-05
1.50879e-05
1.50879e-05
1.50879e-05
1.50879e-05
1.50879e-05
1.50635e-05
1.50635e-05
1.50879e-05
1.50635e-05
1.50635e-05
1.50635e-05
1.50635e-05
1.50635e-05
1.50635e-05
1.50635e-05
1.50635e-05
1.50391e-05
1.50635e-05
1.50635e-05
1.50635e-05
1.50635e-05
1.50635e-05
1.50391e-05
1.50635e-05
1.50391e-05
1.50391e-05
1.50391e-05
1.50635e-05
1.50391e-05
1.50391e-05
1.50391e-05
1.50391e-05
1.50146e-05
1.50391e-05
1.50146e-05
1.50391e-05
1.50146e-05
1.50146e-05
1.50146e-05
1.50391e-05
1.50146e-05
1.50146e-05
1.50146e-05
1.50146e-05
1.50146e-05
1.50146e-05
1.50146e-05
1.50146e-05
1.50146e-05
1.50146e-05
1.50146e-05
1.50146e-05
1.50146e-05
1.50146e-05
1.50146e-05
1.50146e-05
1.50146e-05
1.50146e-05
1.49902e-05
1.50146e-05
1.49902e-05
1.49902e-05
1.49902e-05
1.49902e-05
1.49902e-05
1.49902e-05
1.49902e-05
1.49902e-05
1.49902e-05
1.49902e-05
1.49902e-05
1.49902e-05
1.49902e-05
1.49658e-05
1.49902e-05
1.49902e-05
1.49658e-05
1.49658e-05
1.49902e-05
1.49658e-05
1.49658e-05
1.49658e-05
1.49658e-05
1.49658e-05
1.49414e-05
1.49414e-05
1.49414e-05
1.49658e-05
1.49414e-05
1.49414e-05
1.49414e-05
1.49414e-05
1.49414e-05
1.4917e-05
1.49414e-05
1.49414e-05
1.4917e-05
1.4917e-05
1.49414e-05
1.4917e-05
1.4917e-05
1.4917e-05
1.4917e-05
1.4917e-05
1.4917e-05
1.4917e-05
1.4917e-05
1.4917e-05
1.4917e-05
1.48926e-05
1.48926e-05
1.4917e-05
1.48926e-05
1.48926e-05
1.48926e-05
1.4917e-05
1.48926e-05
1.48926e-05
1.48926e-05
1.48926e-05
1.48926e-05
1.48682e-05
1.48682e-05
1.48926e-05
1.48682e-05
1.48682e-05
1.48682e-05
1.48682e-05
1.48682e-05
1.48682e-05
1.48682e-05
1.48682e-05
1.48437e-05
1.48437e-05
1.48437e-05
1.48437e-05
1.48437e-05
1.48437e-05
1.48437e-05
1.48437e-05
1.48437e-05
1.48437e-05
1.48437e-05
1.48437e-05
1.48437e-05
1.48437e-05
1.48437e-05
1.48437e-05
1.48193e-05
1.48193e-05
1.48437e-05
1.48193e-05
1.48193e-05
1.48193e-05
1.48193e-05
1.48193e-05
1.48193e-05
1.48193e-05
1.48193e-05
1.48193e-05
1.48193e-05
1.48193e-05
1.48193e-05
1.48193e-05
1.47949e-05
1.48193e-05
1.48193e-05
1.48193e-05
1.47949e-05
1.47949e-05
1.47949e-05
1.48193e-05
1.47949e-05
1.47949e-05
1.47949e-05
1.48193e-05
1.47949e-05
1.47949e-05
1.47949e-05
1.47949e-05
1.47949e-05
1.47949e-05
1.47949e-05
1.48193e-05
1.47949e-05
1.47949e-05
1.47949e-05
1.47949e-05
1.47949e-05
1.47949e-05
1.47949e-05
1.47949e-05
1.47949e-05
1.47949e-05
1.47949e-05
1.47949e-05
1.47949e-05
1.47949e-05
1.47949e-05
1.48193e-05
1.47949e-05
1.47949e-05
1.47949e-05
1.48193e-05
1.48193e-05
1.48193e-05
1.48193e-05
1.48193e-05
1.48193e-05
1.48193e-05
1.48193e-05
1.48193e-05
1.48193e-05
1.48437e-05
1.48193e-05
1.48437e-05
1.48193e-05
1.48437e-05
1.48437e-05
1.48437e-05
1.48437e-05
1.48437e-05
1.48437e-05
1.48682e-05
1.48437e-05
1.48437e-05
1.48682e-05
1.48437e-05
1.48682e-05
1.48682e-05
1.48682e-05
1.48682e-05
1.48682e-05
1.48682e-05
1.48926e-05
1.48682e-05
1.48926e-05
1.48926e-05
1.48926e-05
1.48926e-05
1.48926e-05
1.4917e-05
1.4917e-05
1.48926e-05
1.4917e-05
1.4917e-05
1.4917e-05
1.4917e-05
1.4917e-05
1.4917e-05
1.49414e-05
1.4917e-05
1.49414e-05
1.49414e-05
1.49414e-05
1.49414e-05
1.49414e-05
1.49414e-05
1.49414e-05
1.49414e-05
1.49414e-05
1.49414e-05
1.49414e-05
1.49414e-05
1.49414e-05
1.49658e-05
1.49658e-05
1.49658e-05
1.49658e-05
1.49658e-05
1.49658e-05
1.49658e-05
1.49658e-05
1.49658e-05
1.49902e-05
1.49902e-05
1.49658e-05
1.49902e-05
1.49902e-05
1.49902e-05
1.49902e-05
1.49902e-05
1.50146e-05
1.49902e-05
1.49902e-05
1.49902e-05
1.49902e-05
1.49902e-05
1.49902e-05
1.49902e-05
1.49902e-05
1.49902e-05
1.49902e-05
1.50146e-05
1.50146e-05
1.50146e-05
1.49902e-05
1.49902e-05
1.50146e-05
1.50146e-05
1.49902e-05
1.49902e-05
1.50146e-05
1.50146e-05
1.49902e-05
1.49902e-05
1.50146e-05
1.50146e-05
1.50146e-05
1.50146e-05
1.49902e-05
1.50146e-05
1.49902e-05
1.50146e-05
1.50146e-05
1.50146e-05
1.49902e-05
1.50146e-05
1.50146e-05
1.50146e-05
1.49902e-05
1.49902e-05
1.50146e-05
1.49902e-05
1.49902e-05
1.49902e-05
1.49902e-05
1.50146e-05
1.49902e-05
1.49902e-05
1.49902e-05
1.49902e-05
1.49902e-05
1.49902e-05
1.49902e-05
1.49902e-05
1.49902e-05
1.49902e-05
1.49902e-05
1.49902e-05
1.49902e-05
1.49658e-05
1.49902e-05
1.49902e-05
1.49658e-05
1.49658e-05
1.49658e-05
1.49658e-05
1.49658e-05
1.49658e-05
1.49658e-05
1.49658e-05
1.49658e-05
1.49414e-05
1.49414e-05
1.49658e-05
1.49414e-05
1.49414e-05
1.49414e-05
1.49414e-05
1.49414e-05
1.49414e-05
1.49414e-05
1.49414e-05
1.49414e-05
1.49414e-05
1.49414e-05
1.49414e-05
1.4917e-05
1.4917e-05
1.4917e-05
1.4917e-05
1.4917e-05
1.4917e-05
1.4917e-05
1.4917e-05
1.4917e-05
1.4917e-05
1.4917e-05
1.4917e-05
1.4917e-05
1.4917e-05
1.4917e-05
1.48926e-05
1.48926e-05
1.48926e-05
1.48926e-05
1.48926e-05
1.48682e-05
1.48682e-05
1.48926e-05
1.48926e-05
1.48682e-05
1.48682e-05
1.48682e-05
1.48682e-05
1.48682e-05
1.48437e-05
1.48682e-05
1.48682e-05
1.48437e-05
1.48437e-05
1.48437e-05
1.48437e-05
1.48437e-05
1.48437e-05
1.48437e-05
1.48437e-05
1.48437e-05
1.48437e-05
1.48437e-05
1.48193e-05
1.48193e-05
1.48193e-05
1.48193e-05
1.48193e-05
1.47949e-05
1.48193e-05
1.47949e-05
1.47949e-05
1.47949e-05
1.47949e-05
1.47949e-05
1.47949e-05
1.47949e-05
1.47949e-05
1.47949e-05
1.47949e-05
1.47705e-05
1.47705e-05
1.47949e-05
1.47705e-05
1.47461e-05
1.47705e-05
1.47705e-05
1.47461e-05
1.47461e-05
1.47461e-05
1.47461e-05
1.47461e-05
1.47461e-05
1.47461e-05
1.47461e-05
1.47461e-05
1.47461e-05
1.47217e-05
1.47461e-05
1.47461e-05
1.47217e-05
1.47217e-05
1.47461e-05
1.47217e-05
1.47217e-05
1.47217e-05
1.47217e-05
1.47217e-05
1.46973e-05
1.46973e-05
1.46973e-05
1.46973e-05
1.46973e-05
1.46973e-05
1.46973e-05
1.46729e-05
1.46729e-05
1.46729e-05
1.46729e-05
1.46729e-05
1.46729e-05
1.46484e-05
1.46729e-05
1.46484e-05
1.46484e-05
1.46484e-05
1.46484e-05
1.46484e-05
1.46484e-05
1.46484e-05
1.46484e-05
1.46484e-05
1.4624e-05
1.46484e-05
1.4624e-05
1.4624e-05
1.4624e-05
1.4624e-05
1.4624e-05
1.4624e-05
1.45996e-05
1.4624e-05
1.45996e-05
1.4624e-05
1.45996e-05
1.45996e-05
1.45996e-05
1.45996e-05
1.45996e-05
1.45996e-05
1.45752e-05
1.45996e-05
1.45752e-05
1.45752e-05
1.45752e-05
1.45752e-05
1.45508e-05
1.45752e-05
1.45752e-05
1.45752e-05
1.45752e-05
1.45752e-05
1.45508e-05
1.45508e-05
1.45508e-05
1.45508e-05
1.45508e-05
1.45508e-05
1.45508e-05
1.45264e-05
1.45264e-05
1.45264e-05
1.45264e-05
1.45264e-05
1.45264e-05
1.45264e-05
1.45264e-05
1.45264e-05
1.4502e-05
1.45264e-05
1.4502e-05
1.4502e-05
1.4502e-05
1.45264e-05
1.4502e-05
1.4502e-05
1.44775e-05
1.4502e-05
1.44775e-05
1.44775e-05
1.44775e-05
1.44775e-05
1.44775e-05
1.44775e-05
1.44531e-05
1.44775e-05
1.44775e-05
1.44531e-05
1.44775e-05
1.44531e-05
1.44531e-05
1.44531e-05
1.44531e-05
1.44531e-05
1.44531e-05
1.44287e-05
1.44531e-05
1.44531e-05
1.44287e-05
1.44287e-05
1.44287e-05
1.44287e-05
1.44287e-05
1.44287e-05
1.44287e-05
1.44287e-05
1.44287e-05
1.44287e-05
1.44287e-05
1.44043e-05
1.44043e-05
1.44043e-05
1.44043e-05
1.44043e-05
1.44043e-05
1.44043e-05
1.44043e-05
1.43799e-05
1.43799e-05
1.43799e-05
1.43799e-05
1.43799e-05
1.43799e-05
1.43799e-05
1.43555e-05
1.43555e-05
1.43555e-05
1.43555e-05
1.43555e-05
1.43555e-05
1.43555e-05
1.43555e-05
1.43555e-05
1.43555e-05
1.43555e-05
1.43555e-05
1.43555e-05
1.43311e-05
1.43311e-05
1.43311e-05
1.43311e-05
1.43311e-05
1.43311e-05
1.43311e-05
1.43311e-05
1.43066e-05
1.43311e-05
1.43066e-05
1.43066e-05
1.43066e-05
1.43066e-05
1.42822e-05
1.43066e-05
1.43066e-05
1.42822e-05
1.42822e-05
1.42822e-05
1.42822e-05
1.42822e-05
1.42822e-05
1.42822e-05
1.42822e-05
1.42578e-05
1.42822e-05
1.42578e-05
1.42822e-05
1.42578e-05
1.42578e-05
1.42578e-05
1.42578e-05
1.42334e-05
1.42334e-05
1.42578e-05
1.42334e-05
1.42334e-05
1.42334e-05
1.42334e-05
1.42334e-05
1.42334e-05
1.42334e-05
1.42334e-05
1.42334e-05
1.42334e-05
1.4209e-05
1.42334e-05
1.4209e-05
1.4209e-05
1.4209e-05
1.4209e-05
1.4209e-05
1.4209e-05
1.41846e-05
1.4209e-05
1.41846e-05
1.4209e-05
1.41846e-05
1.41846e-05
1.41846e-05
1.41602e-05
1.41846e-05
1.41846e-05
1.41846e-05
1.41602e-05
1.41602e-05
1.41602e-05
1.41602e-05
1.41602e-05
1.41602e-05
1.41602e-05
1.41357e-05
1.41357e-05
1.41357e-05
1.41357e-05
1.41357e-05
1.41357e-05
1.41357e-05
1.41357e-05
1.41357e-05
1.41357e-05
1.41357e-05
1.41357e-05
1.41113e-05
1.41113e-05
1.41113e-05
1.41113e-05
1.41113e-05
1.40869e-05
1.41113e-05
1.41113e-05
1.41113e-05
1.40869e-05
1.40869e-05
1.40869e-05
1.40869e-05
1.40869e-05
1.40869e-05
1.40869e-05
1.40869e-05
1.40625e-05
1.40625e-05
1.40625e-05
1.40625e-05
1.40625e-05
1.40625e-05
1.40625e-05
1.40625e-05
1.40381e-05
1.40381e-05
1.40381e-05
1.40381e-05
1.40381e-05
1.40381e-05
1.40381e-05
1.40381e-05
1.40381e-05
1.40381e-05
1.40381e-05
1.40381e-05
1.40137e-05
1.40137e-05
1.40137e-05
1.40137e-05
1.40137e-05
1.40137e-05
1.40137e-05
1.40137e-05
1.39893e-05
1.39893e-05
1.40137e-05
1.39893e-05
1.39893e-05
1.39893e-05
1.39893e-05
1.39893e-05
1.39648e-05
1.39648e-05
1.39893e-05
1.39893e-05
1.39648e-05
1.39648e-05
1.39648e-05
1.39648e-05
1.39648e-05
1.39648e-05
1.39648e-05
1.39648e-05
1.39404e-05
1.39404e-05
1.39648e-05
1.39404e-05
1.39404e-05
1.39404e-05
1.39404e-05
1.39404e-05
1.39404e-05
1.39404e-05
1.39404e-05
1.3916e-05
1.3916e-05
1.3916e-05
1.3916e-05
1.3916e-05
1.38916e-05
1.38916e-05
1.38916e-05
1.38916e-05
1.38916e-05
1.38916e-05
1.38916e-05
1.38916e-05
1.38672e-05
1.38672e-05
1.38672e-05
1.38672e-05
1.38672e-05
1.38672e-05
1.38672e-05
1.38672e-05
1.38672e-05
1.38672e-05
1.38672e-05
1.38672e-05
1.38672e-05
1.38672e-05
1.38672e-05
1.38672e-05
1.38672e-05
1.38672e-05
1.38428e-05
1.38672e-05
1.38428e-05
1.38428e-05
1.38428e-05
1.38428e-05
1.38428e-05
1.38428e-05
1.38184e-05
1.38428e-05
1.38184e-05
1.38184e-05
1.38184e-05
1.38428e-05
1.38184e-05
1.38184e-05
1.37939e-05
1.38184e-05
1.37939e-05
1.37939e-05
1.37939e-05
1.37939e-05
1.37939e-05
1.37939e-05
1.37939e-05
1.37939e-05
1.37695e-05
1.37695e-05
1.37695e-05
1.37695e-05
1.37695e-05
1.37695e-05
1.37695e-05
1.37695e-05
1.37695e-05
1.37695e-05
1.37695e-05
1.37695e-05
1.37451e-05
1.37451e-05
1.37451e-05
1.37451e-05
1.37451e-05
1.37451e-05
1.37451e-05
1.37451e-05
1.37451e-05
1.37207e-05
1.37207e-05
1.37451e-05
1.37207e-05
1.37207e-05
1.37207e-05
1.37451e-05
1.37207e-05
1.37207e-05
1.37207e-05
1.37207e-05
1.37207e-05
1.37207e-05
1.37207e-05
1.36963e-05
1.36963e-05
1.36963e-05
1.36963e-05
1.36963e-05
1.36963e-05
1.36963e-05
1.36963e-05
1.36963e-05
1.36963e-05
1.36963e-05
1.36963e-05
1.36963e-05
1.36963e-05
1.36963e-05
1.36963e-05
1.36963e-05
1.36719e-05
1.36719e-05
1.36963e-05
1.36719e-05
1.36719e-05
1.36719e-05
1.36719e-05
1.36719e-05
1.36719e-05
1.36719e-05
1.36719e-05
1.36719e-05
1.36719e-05
1.36719e-05
1.36719e-05
1.36719e-05
1.36719e-05
1.36475e-05
1.36719e-05
1.36719e-05
1.36475e-05
1.36475e-05
1.36475e-05
1.36475e-05
1.36475e-05
1.36475e-05
1.36475e-05
1.36475e-05
1.36475e-05
1.36475e-05
1.36475e-05
1.36475e-05
1.3623e-05
1.3623e-05
1.3623e-05
1.3623e-05
1.3623e-05
1.3623e-05
1.3623e-05
1.3623e-05
1.3623e-05
1.3623e-05
1.3623e-05
1.3623e-05
1.3623e-05
1.3623e-05
1.3623e-05
1.3623e-05
1.35986e-05
1.35986e-05
1.35986e-05
1.35986e-05
1.35742e-05
1.35986e-05
1.35986e-05
1.35742e-05
1.35986e-05
1.35742e-05
1.35986e-05
1.35742e-05
1.35742e-05
1.35742e-05
1.35742e-05
1.35742e-05
1.35742e-05
1.35742e-05
1.35742e-05
1.35742e-05
1.35742e-05
1.35742e-05
1.35742e-05
1.35498e-05
1.35498e-05
1.35498e-05
1.35498e-05
1.35498e-05
1.35498e-05
1.35498e-05
1.35498e-05
1.35498e-05
1.35498e-05
1.35498e-05
1.35498e-05
1.35498e-05
1.35498e-05
1.35498e-05
1.35498e-05
1.35254e-05
1.35254e-05
1.35254e-05
1.35254e-05
1.35254e-05
1.35254e-05
1.35254e-05
1.35254e-05
1.35254e-05
1.3501e-05
1.3501e-05
1.3501e-05
1.35254e-05
1.3501e-05
1.3501e-05
1.3501e-05
1.35254e-05
1.3501e-05
1.3501e-05
1.3501e-05
1.3501e-05
1.3501e-05
1.3501e-05
1.3501e-05
1.3501e-05
1.34766e-05
1.34766e-05
1.34766e-05
1.3501e-05
1.34766e-05
1.34766e-05
1.34766e-05
1.34766e-05
1.34766e-05
1.34521e-05
1.34766e-05
1.34766e-05
1.34766e-05
1.34521e-05
1.34521e-05
1.34521e-05
1.34521e-05
1.34521e-05
1.34521e-05
1.34521e-05
1.34521e-05
1.34521e-05
1.34521e-05
1.34521e-05
1.34521e-05
1.34521e-05
1.34521e-05
1.34521e-05
1.34521e-05
1.34521e-05
1.34521e-05
1.34521e-05
1.34521e-05
1.34521e-05
1.34521e-05
1.34277e-05
1.34277e-05
1.34277e-05
1.34277e-05
1.34277e-05
1.34277e-05
1.34277e-05
1.34277e-05
1.34277e-05
1.34277e-05
1.34277e-05
1.34277e-05
1.34277e-05
1.34277e-05
1.34277e-05
1.34277e-05
1.34277e-05
1.34033e-05
1.34033e-05
1.34277e-05
1.34033e-05
1.34033e-05
1.34033e-05
1.34033e-05
1.34033e-05
1.34033e-05
1.34033e-05
1.34033e-05
1.34033e-05
1.33789e-05
1.34033e-05
1.34033e-05
1.33789e-05
1.33789e-05
1.33789e-05
1.33789e-05
1.33789e-05
1.33789e-05
1.33789e-05
1.34033e-05
1.33789e-05
1.33789e-05
1.33789e-05
1.33789e-05
1.33789e-05
1.33789e-05
1.33789e-05
1.33789e-05
1.33789e-05
1.33789e-05
1.33789e-05
1.33789e-05
1.33789e-05
1.33789e-05
1.33789e-05
1.33789e-05
1.33789e-05
1.33789e-05
1.33789e-05
1.33789e-05
1.33789e-05
1.33789e-05
1.33789e-05
1.33789e-05
1.33789e-05
1.33789e-05
1.33789e-05
1.33789e-05
1.33789e-05
1.33789e-05
1.33789e-05
1.33789e-05
1.33789e-05
1.33789e-05
1.33789e-05
1.34033e-05
1.33789e-05
1.33789e-05
1.33789e-05
1.33789e-05
1.33789e-05
1.34033e-05
1.33789e-05
1.33789e-05
1.33789e-05
1.33789e-05
1.33789e-05
1.33789e-05
1.33789e-05
1.33789e-05
1.33789e-05
1.34033e-05
1.33789e-05
1.33789e-05
1.33789e-05
1.33789e-05
1.33789e-05
1.33789e-05
1.33789e-05
1.33789e-05
1.33789e-05
1.33789e-05
1.33789e-05
1.33789e-05
1.33789e-05
1.33789e-05
1.33789e-05
1.33789e-05
1.34033e-05
1.33789e-05
1.33789e-05
1.33789e-05
1.33789e-05
1.33789e-05
1.33789e-05
1.33789e-05
1.33789e-05
1.33789e-05
1.33789e-05
1.33789e-05
1.33789e-05
1.33789e-05
1.33789e-05
1.33789e-05
1.33789e-05
1.33789e-05
1.33545e-05
1.33789e-05
1.33789e-05
1.33789e-05
1.33789e-05
1.33789e-05
1.33789e-05
1.33545e-05
1.33789e-05
1.33789e-05
1.33789e-05
1.33545e-05
1.33545e-05
1.33789e-05
1.33545e-05
1.33545e-05
1.33545e-05
1.33789e-05
1.33545e-05
1.33545e-05
1.33545e-05
1.33545e-05
1.33545e-05
1.33545e-05
1.33545e-05
1.33545e-05
1.33545e-05
1.33545e-05
1.33545e-05
1.33545e-05
1.33545e-05
1.33545e-05
1.33545e-05
1.33545e-05
1.33545e-05
1.33545e-05
1.33545e-05
1.33545e-05
1.33301e-05
1.33301e-05
1.33545e-05
1.33545e-05
1.33545e-05
1.33301e-05
1.33301e-05
1.33301e-05
1.33545e-05
1.33301e-05
1.33301e-05
1.33301e-05
1.33301e-05
1.33301e-05
1.33301e-05
1.33301e-05
1.33301e-05
1.33057e-05
1.33301e-05
1.33301e-05
1.33057e-05
1.33057e-05
1.33057e-05
1.33301e-05
1.33057e-05
1.33057e-05
1.33057e-05
1.33057e-05
1.33057e-05
1.33057e-05
1.33057e-05
1.33057e-05
1.33057e-05
1.33057e-05
1.33057e-05
1.33057e-05
1.32812e-05
1.32812e-05
1.32812e-05
1.33057e-05
1.33057e-05
1.32812e-05
1.32812e-05
1.32812e-05
1.32812e-05
1.32812e-05
1.32812e-05
1.32812e-05
1.32812e-05
1.32812e-05
1.32812e-05
1.32812e-05
1.32568e-05
1.32812e-05
1.32568e-05
1.32812e-05
1.32812e-05
1.32568e-05
1.32568e-05
1.32812e-05
1.32568e-05
1.32568e-05
1.32812e-05
1.32812e-05
1.32812e-05
1.32812e-05
1.32812e-05
1.32812e-05
1.33057e-05
1.32812e-05
1.33057e-05
1.33057e-05
1.33057e-05
1.33057e-05
1.33057e-05
1.33057e-05
1.33057e-05
1.33057e-05
1.33057e-05
1.33057e-05
1.33057e-05
1.33057e-05
1.33057e-05
1.33057e-05
1.33057e-05
1.33057e-05
1.33057e-05
1.33057e-05
1.33057e-05
1.33057e-05
1.33057e-05
1.33057e-05
1.33301e-05
1.33057e-05
1.33057e-05
1.33057e-05
1.33301e-05
1.33057e-05
1.33057e-05
1.33057e-05
1.33057e-05
1.33057e-05
1.33057e-05
1.33057e-05
1.33057e-05
1.32812e-05
1.33057e-05
1.32812e-05
1.33057e-05
1.32812e-05
1.32812e-05
1.32812e-05
1.32812e-05
1.32568e-05
1.32568e-05
1.32568e-05
1.32568e-05
1.32568e-05
1.32568e-05
1.32568e-05
1.32568e-05
1.32568e-05
1.32568e-05
1.32324e-05
1.32568e-05
1.32324e-05
1.32324e-05
1.32324e-05
1.32324e-05
1.32324e-05
1.32324e-05
1.32324e-05
1.32324e-05
1.3208e-05
1.32324e-05
1.3208e-05
1.32324e-05
1.3208e-05
1.3208e-05
1.3208e-05
1.32324e-05
1.3208e-05
1.3208e-05
1.31836e-05
1.3208e-05
1.3208e-05
1.31836e-05
1.31836e-05
1.3208e-05
1.31836e-05
1.31836e-05
1.31836e-05
1.31836e-05
1.31836e-05
1.31836e-05
1.31836e-05
1.31836e-05
1.31592e-05
1.31592e-05
1.31592e-05
1.31836e-05
1.31592e-05
1.31592e-05
1.31592e-05
1.31592e-05
1.31348e-05
1.31348e-05
1.31348e-05
1.31348e-05
1.31348e-05
1.31348e-05
1.31348e-05
1.31348e-05
1.31104e-05
1.31104e-05
1.31348e-05
1.31104e-05
1.31104e-05
1.31104e-05
1.31104e-05
1.31104e-05
1.31104e-05
1.30859e-05
1.31104e-05
1.31104e-05
1.30859e-05
1.30859e-05
1.30859e-05
1.30859e-05
1.30859e-05
1.30859e-05
1.30859e-05
1.30859e-05
1.30615e-05
1.30859e-05
1.30859e-05
1.30615e-05
1.30615e-05
1.30615e-05
1.30615e-05
1.30615e-05
1.30615e-05
1.30615e-05
1.30615e-05
1.30615e-05
1.30615e-05
1.30371e-05
1.30371e-05
1.30371e-05
1.30371e-05
1.30371e-05
1.30371e-05
1.30371e-05
1.30371e-05
1.30371e-05
1.30371e-05
1.30127e-05
1.30127e-05
1.30371e-05
1.30127e-05
1.30127e-05
1.30127e-05
1.30127e-05
1.30127e-05
1.30127e-05
1.29883e-05
1.30127e-05
1.29883e-05
1.29883e-05
1.29883e-05
1.29883e-05
1.29883e-05
1.29883e-05
1.29883e-05
1.29883e-05
1.29883e-05
1.29883e-05
1.29639e-05
1.29883e-05
1.29639e-05
1.29639e-05
1.29639e-05
1.29639e-05
1.29639e-05
1.29639e-05
1.29639e-05
1.29639e-05
1.29639e-05
1.29639e-05
1.29395e-05
1.29395e-05
1.29395e-05
1.29395e-05
1.29395e-05
1.29395e-05
1.29395e-05
1.2915e-05
1.2915e-05
1.29395e-05
1.29395e-05
1.29395e-05
1.2915e-05
1.2915e-05
1.2915e-05
1.2915e-05
1.2915e-05
1.2915e-05
1.2915e-05
1.2915e-05
1.2915e-05
1.28906e-05
1.2915e-05
1.28906e-05
1.28906e-05
1.28906e-05
1.28906e-05
1.28906e-05
1.28906e-05
1.28906e-05
1.28906e-05
1.28906e-05
1.28906e-05
1.28662e-05
1.28662e-05
1.28662e-05
1.28662e-05
1.28662e-05
1.28662e-05
1.28662e-05
1.28662e-05
1.28662e-05
1.28662e-05
1.28662e-05
1.28662e-05
1.28662e-05
1.28662e-05
1.28662e-05
1.28662e-05
1.28662e-05
1.28662e-05
1.28662e-05
1.28662e-05
1.28662e-05
1.28662e-05
1.28418e-05
1.28662e-05
1.28418e-05
1.28418e-05
1.28418e-05
1.28418e-05
1.28418e-05
1.28418e-05
1.28418e-05
1.28418e-05
1.28418e-05
1.28418e-05
1.28418e-05
1.28418e-05
1.28174e-05
1.28418e-05
1.28174e-05
1.28418e-05
1.28174e-05
1.28418e-05
1.28174e-05
1.28174e-05
1.28174e-05
1.28174e-05
1.28174e-05
1.28174e-05
1.28174e-05
1.28174e-05
1.28174e-05
1.28174e-05
1.28174e-05
1.28174e-05
1.28174e-05
1.28174e-05
1.28174e-05
1.28174e-05
1.28174e-05
1.28174e-05
1.28174e-05
1.28174e-05
1.28418e-05
1.28174e-05
1.28174e-05
1.28174e-05
1.28174e-05
1.28174e-05
1.28174e-05
1.28418e-05
1.28418e-05
1.28418e-05
1.28418e-05
1.28418e-05
1.28418e-05
1.28418e-05
1.28418e-05
1.28418e-05
1.28418e-05
1.28418e-05
1.28418e-05
1.28662e-05
1.28418e-05
1.28418e-05
1.28662e-05
1.28662e-05
1.28662e-05
1.28662e-05
1.28662e-05
1.28662e-05
1.28662e-05
1.28662e-05
1.28662e-05
1.28906e-05
1.28662e-05
1.28662e-05
1.28906e-05
1.28906e-05
1.28906e-05
1.28906e-05
1.28906e-05
1.2915e-05
1.28906e-05
1.28906e-05
1.2915e-05
1.2915e-05
1.2915e-05
1.2915e-05
1.2915e-05
1.2915e-05
1.2915e-05
1.2915e-05
1.2915e-05
1.29395e-05
1.29395e-05
1.29395e-05
1.29395e-05
1.29395e-05
1.29395e-05
1.29395e-05
1.29395e-05
1.29395e-05
1.29395e-05
1.29395e-05
1.29395e-05
1.29639e-05
1.29395e-05
1.29395e-05
1.29395e-05
1.29639e-05
1.29639e-05
1.29639e-05
1.29639e-05
1.29639e-05
1.29639e-05
1.29639e-05
1.29639e-05
1.29639e-05
1.29639e-05
1.29639e-05
1.29639e-05
1.29639e-05
1.29639e-05
1.29639e-05
1.29639e-05
1.29639e-05
1.29639e-05
1.29639e-05
1.29639e-05
1.29883e-05
1.29639e-05
1.29639e-05
1.29883e-05
1.29639e-05
1.29883e-05
1.29639e-05
1.29883e-05
1.29883e-05
1.29883e-05
1.29639e-05
1.29639e-05
1.29883e-05
1.29883e-05
1.29883e-05
1.29883e-05
1.29883e-05
1.29883e-05
1.29883e-05
1.29883e-05
1.29883e-05
1.29883e-05
1.29883e-05
1.29883e-05
1.29883e-05
1.29883e-05
1.29883e-05
1.29883e-05
1.29883e-05
1.29883e-05
1.29883e-05
1.29883e-05
1.29883e-05
1.29883e-05
1.29883e-05
1.29883e-05
1.29883e-05
1.29883e-05
1.29883e-05
1.29883e-05
1.29883e-05
1.29883e-05
1.29883e-05
1.29883e-05
1.29883e-05
1.29883e-05
1.29883e-05
1.29883e-05
1.29883e-05
1.29883e-05
1.29883e-05
1.29883e-05
1.29883e-05
1.29883e-05
1.29883e-05
1.29883e-05
1.29883e-05
1.29883e-05
1.29883e-05
1.29883e-05
1.29883e-05
1.29883e-05
1.29639e-05
1.29883e-05
1.29883e-05
1.29883e-05
1.29639e-05
1.29639e-05
1.29883e-05
1.29639e-05
1.29639e-05
1.29639e-05
1.29883e-05
1.29639e-05
1.29639e-05
1.29639e-05
1.29639e-05
1.29639e-05
1.29639e-05
1.29639e-05
1.29639e-05
1.29639e-05
1.29639e-05
1.29639e-05
1.29639e-05
1.29639e-05
1.29639e-05
1.29639e-05
1.29639e-05
1.29639e-05
1.29639e-05
1.29639e-05
1.29639e-05
1.29639e-05
1.29395e-05
1.29639e-05
1.29395e-05
1.29395e-05
1.29395e-05
1.29395e-05
1.29395e-05
1.29395e-05
1.29395e-05
1.29395e-05
1.29395e-05
1.29395e-05
1.29395e-05
1.29395e-05
1.29395e-05
1.2915e-05
1.29395e-05
1.2915e-05
1.2915e-05
1.29395e-05
1.2915e-05
1.2915e-05
1.2915e-05
1.2915e-05
1.2915e-05
1.2915e-05
1.2915e-05
1.2915e-05
1.2915e-05
1.2915e-05
1.2915e-05
1.28906e-05
1.28906e-05
1.28906e-05
1.28906e-05
1.28906e-05
1.28906e-05
1.28906e-05
1.28906e-05
1.28906e-05
1.28906e-05
1.28906e-05
1.28906e-05
1.28662e-05
1.28906e-05
1.28906e-05
1.28906e-05
1.28662e-05
1.28662e-05
1.28662e-05
1.28662e-05
1.28662e-05
1.28662e-05
1.28662e-05
1.28662e-05
1.28662e-05
1.28662e-05
1.28662e-05
1.28662e-05
1.28662e-05
1.28662e-05
1.28662e-05
1.28662e-05
1.28662e-05
1.28418e-05
1.28418e-05
1.28418e-05
1.28418e-05
1.28418e-05
1.28418e-05
1.28418e-05
1.28418e-05
1.28418e-05
1.28418e-05
1.28418e-05
1.28418e-05
1.28418e-05
1.28174e-05
1.28418e-05
1.28418e-05
1.28174e-05
1.28174e-05
1.28174e-05
1.28174e-05
1.28174e-05
1.28174e-05
1.28174e-05
1.28174e-05
1.2793e-05
1.2793e-05
1.28174e-05
1.2793e-05
1.2793e-05
1.2793e-05
1.2793e-05
1.2793e-05
1.2793e-05
1.2793e-05
1.2793e-05
1.2793e-05
1.2793e-05
1.2793e-05
1.2793e-05
1.2793e-05
1.27686e-05
1.27686e-05
1.2793e-05
1.27686e-05
1.27686e-05
1.27686e-05
1.27686e-05
1.27686e-05
1.27686e-05
1.27686e-05
1.27686e-05
1.27686e-05
1.27686e-05
1.27686e-05
1.27441e-05
1.27686e-05
1.27441e-05
1.27441e-05
1.27441e-05
1.27441e-05
1.27441e-05
1.27441e-05
1.27441e-05
1.27441e-05
1.27197e-05
1.27197e-05
1.27197e-05
1.27197e-05
1.27197e-05
1.27197e-05
1.27197e-05
1.27197e-05
1.26953e-05
1.26953e-05
1.27197e-05
1.26953e-05
1.26953e-05
1.26953e-05
1.26953e-05
1.26953e-05
1.26953e-05
1.26953e-05
1.26953e-05
1.26953e-05
1.26953e-05
1.26953e-05
1.26953e-05
1.26953e-05
1.26953e-05
1.26709e-05
1.26953e-05
1.26953e-05
1.26709e-05
1.26709e-05
1.26709e-05
1.26709e-05
1.26709e-05
1.26709e-05
1.26709e-05
1.26709e-05
1.26709e-05
1.26465e-05
1.26465e-05
1.26465e-05
1.26465e-05
1.26465e-05
1.26465e-05
1.26465e-05
1.26465e-05
1.26221e-05
1.26221e-05
1.26221e-05
1.25977e-05
1.25977e-05
1.25977e-05
1.25977e-05
1.25977e-05
1.25977e-05
1.25977e-05
1.25977e-05
1.25977e-05
1.25977e-05
1.25977e-05
1.25732e-05
1.25732e-05
1.25732e-05
1.25732e-05
1.25732e-05
1.25732e-05
1.25732e-05
1.25732e-05
1.25732e-05
1.25732e-05
1.25488e-05
1.25732e-05
1.25488e-05
1.25488e-05
1.25488e-05
1.25488e-05
1.25488e-05
1.25488e-05
1.25244e-05
1.25488e-05
1.25488e-05
1.25244e-05
1.25244e-05
1.25488e-05
1.25244e-05
1.25244e-05
1.25244e-05
1.25244e-05
1.25244e-05
1.25244e-05
1.25244e-05
1.25244e-05
1.25244e-05
1.25e-05
1.25e-05
1.25e-05
1.25e-05
1.25e-05
1.25e-05
1.25e-05
1.25e-05
1.25e-05
1.25e-05
1.25e-05
1.25e-05
1.24756e-05
1.24756e-05
1.24756e-05
1.24756e-05
1.24756e-05
1.24756e-05
1.24756e-05
1.24756e-05
1.24756e-05
1.24756e-05
1.24756e-05
1.24756e-05
1.24512e-05
1.24512e-05
1.24512e-05
1.24512e-05
1.24512e-05
1.24512e-05
1.24512e-05
1.24512e-05
1.24512e-05
1.24512e-05
1.24512e-05
1.24512e-05
1.24512e-05
1.24268e-05
1.24512e-05
1.24512e-05
1.24268e-05
1.24268e-05
1.24268e-05
1.24268e-05
1.24268e-05
1.24023e-05
1.24268e-05
1.24268e-05
1.24023e-05
1.24268e-05
1.24023e-05
1.24023e-05
1.24023e-05
1.24023e-05
1.24023e-05
1.24023e-05
1.24023e-05
1.24023e-05
1.24023e-05
1.24023e-05
1.24023e-05
1.24023e-05
1.24023e-05
1.24023e-05
1.24023e-05
1.24023e-05
1.24023e-05
1.24023e-05
1.24023e-05
1.23779e-05
1.23779e-05
1.23779e-05
1.23779e-05
1.23779e-05
1.24023e-05
1.23779e-05
1.23779e-05
1.23779e-05
1.23779e-05
1.23779e-05
1.23779e-05
1.23535e-05
1.23779e-05
1.23779e-05
1.23535e-05
1.23535e-05
1.23535e-05
1.23535e-05
1.23535e-05
1.23535e-05
1.23535e-05
1.23535e-05
1.23291e-05
1.23291e-05
1.23291e-05
1.23291e-05
1.23291e-05
1.23291e-05
1.23291e-05
1.23291e-05
1.23291e-05
1.23291e-05
1.23291e-05
1.23291e-05
1.23291e-05
1.23047e-05
1.23047e-05
1.23047e-05
1.23047e-05
1.23047e-05
1.23047e-05
1.23047e-05
1.23047e-05
1.23047e-05
1.23047e-05
1.23047e-05
1.23047e-05
1.23047e-05
1.23047e-05
1.23047e-05
1.22803e-05
1.22803e-05
1.22803e-05
1.22803e-05
1.22803e-05
1.22803e-05
1.22803e-05
1.22803e-05
1.22559e-05
1.22803e-05
1.22803e-05
1.22559e-05
1.22559e-05
1.22559e-05
1.22559e-05
1.22559e-05
1.22559e-05
1.22559e-05
1.22559e-05
1.22559e-05
1.22559e-05
1.22559e-05
1.22559e-05
1.22559e-05
1.22559e-05
1.22559e-05
1.22559e-05
1.22559e-05
1.22559e-05
1.22559e-05
1.22559e-05
1.22559e-05
1.22559e-05
1.22559e-05
1.22559e-05
1.22314e-05
1.22559e-05
1.22314e-05
1.22314e-05
1.22314e-05
1.22314e-05
1.22314e-05
1.22314e-05
1.22314e-05
1.2207e-05
1.22314e-05
1.22314e-05
1.2207e-05
1.2207e-05
1.2207e-05
1.2207e-05
1.2207e-05
1.2207e-05
1.2207e-05
1.2207e-05
1.2207e-05
1.2207e-05
1.2207e-05
1.21826e-05
1.21826e-05
1.21826e-05
1.21826e-05
1.21826e-05
1.21826e-05
1.21826e-05
1.21826e-05
1.21826e-05
1.21826e-05
1.21826e-05
1.21826e-05
1.21826e-05
1.21826e-05
1.21826e-05
1.21582e-05
1.21582e-05
1.21582e-05
1.21582e-05
1.21582e-05
1.21582e-05
1.21582e-05
1.21582e-05
1.21582e-05
1.21582e-05
1.21582e-05
1.21582e-05
1.21582e-05
1.21582e-05
1.21338e-05
1.21338e-05
1.21338e-05
1.21338e-05
1.21338e-05
1.21338e-05
1.21338e-05
1.21338e-05
1.21338e-05
1.21338e-05
1.21338e-05
1.21338e-05
1.21338e-05
1.21094e-05
1.21338e-05
1.21094e-05
1.21338e-05
1.21094e-05
1.21094e-05
1.21094e-05
1.21094e-05
1.21094e-05
1.21094e-05
1.21094e-05
1.21094e-05
1.21094e-05
1.21094e-05
1.21094e-05
1.21094e-05
1.21094e-05
1.21094e-05
1.21094e-05
1.2085e-05
1.2085e-05
1.2085e-05
1.2085e-05
1.21094e-05
1.2085e-05
1.2085e-05
1.2085e-05
1.2085e-05
1.2085e-05
1.2085e-05
1.2085e-05
1.2085e-05
1.2085e-05
1.2085e-05
1.2085e-05
1.2085e-05
1.2085e-05
1.20605e-05
1.20605e-05
1.2085e-05
1.20605e-05
1.20605e-05
1.2085e-05
1.20605e-05
1.20605e-05
1.20605e-05
1.20605e-05
1.20605e-05
1.20605e-05
1.20605e-05
1.20605e-05
1.20605e-05
1.20605e-05
1.20361e-05
1.20605e-05
1.20605e-05
1.20361e-05
1.20605e-05
1.20361e-05
1.20361e-05
1.20361e-05
1.20361e-05
1.20361e-05
1.20361e-05
1.20361e-05
1.20361e-05
1.20361e-05
1.20361e-05
1.20361e-05
1.20361e-05
1.20117e-05
1.20361e-05
1.20117e-05
1.20117e-05
1.20117e-05
1.20117e-05
1.20117e-05
1.20117e-05
1.20117e-05
1.20117e-05
1.20117e-05
1.20117e-05
1.20117e-05
1.20117e-05
1.20117e-05
1.20117e-05
1.20117e-05
1.20117e-05
1.20117e-05
1.19873e-05
1.19873e-05
1.19873e-05
1.19873e-05
1.19873e-05
1.19873e-05
1.19873e-05
1.19873e-05
1.19873e-05
1.19873e-05
1.19873e-05
1.19873e-05
1.19629e-05
1.19873e-05
1.19873e-05
1.19873e-05
1.19873e-05
1.19629e-05
1.19629e-05
1.19629e-05
1.19629e-05
1.19629e-05
1.19629e-05
1.19385e-05
1.19629e-05
1.19629e-05
1.19629e-05
1.19385e-05
1.19385e-05
1.19385e-05
1.19385e-05
1.19385e-05
1.19385e-05
1.19385e-05
1.19385e-05
1.19385e-05
1.19385e-05
1.19385e-05
1.19385e-05
1.19385e-05
1.19385e-05
1.19385e-05
1.19385e-05
1.19385e-05
1.19141e-05
1.19385e-05
1.19385e-05
1.19141e-05
1.19141e-05
1.19141e-05
1.19141e-05
1.19141e-05
1.19141e-05
1.19141e-05
1.19141e-05
1.19141e-05
1.19141e-05
1.19141e-05
1.19141e-05
1.19141e-05
1.19141e-05
1.19141e-05
1.19141e-05
1.18896e-05
1.18896e-05
1.18896e-05
1.18896e-05
1.18896e-05
1.18896e-05
1.18896e-05
1.18896e-05
1.18896e-05
1.18896e-05
1.18896e-05
1.18896e-05
1.18896e-05
1.18896e-05
1.18896e-05
1.18896e-05
1.18896e-05
1.18896e-05
1.18896e-05
1.18896e-05
1.18896e-05
1.18896e-05
1.18652e-05
1.18652e-05
1.18896e-05
1.18652e-05
1.18896e-05
1.18896e-05
1.18652e-05
1.18652e-05
1.18652e-05
1.18652e-05
1.18652e-05
1.18652e-05
1.18652e-05
1.18652e-05
1.18652e-05
1.18408e-05
1.18652e-05
1.18652e-05
1.18408e-05
1.18408e-05
1.18408e-05
1.18408e-05
1.18408e-05
1.18408e-05
1.18408e-05
1.18408e-05
1.18408e-05
1.18408e-05
1.18164e-05
1.18164e-05
1.18164e-05
1.18164e-05
1.18164e-05
1.18408e-05
1.18164e-05
1.18164e-05
1.18164e-05
1.18164e-05
1.18164e-05
1.18164e-05
1.18164e-05
1.18164e-05
1.18164e-05
1.18164e-05
1.1792e-05
1.18164e-05
1.18164e-05
1.1792e-05
1.18164e-05
1.1792e-05
1.1792e-05
1.18164e-05
1.1792e-05
1.1792e-05
1.1792e-05
1.1792e-05
1.1792e-05
1.18164e-05
1.18164e-05
1.18164e-05
1.1792e-05
1.18164e-05
1.1792e-05
1.18164e-05
1.18164e-05
1.18164e-05
1.18164e-05
1.18164e-05
1.18164e-05
1.18164e-05
1.18164e-05
1.18164e-05
1.18164e-05
1.18164e-05
1.18164e-05
1.18164e-05
1.18164e-05
1.18164e-05
1.18164e-05
1.18164e-05
1.18164e-05
1.18164e-05
1.18164e-05
1.18164e-05
1.18164e-05
1.18164e-05
1.18408e-05
1.18164e-05
1.18164e-05
1.18164e-05
1.18408e-05
1.18164e-05
1.18408e-05
1.18408e-05
1.18408e-05
1.18164e-05
1.18408e-05
1.18164e-05
1.18408e-05
1.18408e-05
1.18164e-05
1.18408e-05
1.18164e-05
1.18164e-05
1.18164e-05
1.18408e-05
1.18164e-05
1.18164e-05
1.18164e-05
1.18408e-05
1.18164e-05
1.18164e-05
1.18164e-05
1.18164e-05
1.18164e-05
1.18164e-05
1.18164e-05
1.18164e-05
1.18164e-05
1.18164e-05
1.18164e-05
1.18164e-05
1.18164e-05
1.18164e-05
1.18164e-05
1.18164e-05
1.18164e-05
1.18164e-05
1.18164e-05
1.1792e-05
1.18164e-05
1.18164e-05
1.18164e-05
1.1792e-05
1.1792e-05
1.1792e-05
1.18164e-05
1.1792e-05
1.1792e-05
1.1792e-05
1.1792e-05
1.1792e-05
1.1792e-05
1.1792e-05
1.1792e-05
1.1792e-05
1.1792e-05
1.1792e-05
1.1792e-05
1.1792e-05
1.1792e-05
1.1792e-05
1.1792e-05
1.1792e-05
1.1792e-05
1.17676e-05
1.1792e-05
1.17676e-05
1.17676e-05
1.17676e-05
1.17676e-05
1.17676e-05
1.17676e-05
1.17676e-05
1.17676e-05
1.17676e-05
1.17432e-05
1.17676e-05
1.17676e-05
1.17432e-05
1.17676e-05
1.17432e-05
1.17432e-05
1.17432e-05
1.17432e-05
1.17432e-05
1.17432e-05
1.17432e-05
1.17432e-05
1.17432e-05
1.17432e-05
1.17432e-05
1.17432e-05
1.17432e-05
1.17432e-05
1.17432e-05
1.17432e-05
1.17432e-05
1.17188e-05
1.17432e-05
1.17432e-05
1.17188e-05
1.17432e-05
1.17188e-05
1.17188e-05
1.17188e-05
1.17188e-05
1.17188e-05
1.17188e-05
1.17188e-05
1.17188e-05
1.17188e-05
1.17188e-05
1.17188e-05
1.17188e-05
1.17188e-05
1.17188e-05
1.17188e-05
1.17188e-05
1.17188e-05
1.17188e-05
1.16943e-05
1.16943e-05
1.16943e-05
1.16943e-05
1.16943e-05
1.16943e-05
1.16943e-05
1.16943e-05
1.16943e-05
1.16943e-05
1.16943e-05
1.16943e-05
1.16943e-05
1.16943e-05
1.16943e-05
1.16699e-05
1.16943e-05
1.16699e-05
1.16943e-05
1.16943e-05
1.16943e-05
1.16699e-05
1.16943e-05
1.16699e-05
1.16699e-05
1.16699e-05
1.16699e-05
1.16699e-05
1.16699e-05
1.16699e-05
1.16699e-05
1.16699e-05
1.16699e-05
1.16699e-05
1.16699e-05
1.16699e-05
1.16699e-05
1.16699e-05
1.16699e-05
1.16699e-05
1.16455e-05
1.16699e-05
1.16455e-05
1.16699e-05
1.16455e-05
1.16699e-05
1.16455e-05
1.16455e-05
1.16699e-05
1.16455e-05
1.16455e-05
1.16455e-05
1.16455e-05
1.16455e-05
1.16455e-05
1.16455e-05
1.16455e-05
1.16455e-05
1.16455e-05
1.16211e-05
1.16455e-05
1.16455e-05
1.16455e-05
1.16455e-05
1.16455e-05
1.16455e-05
1.16211e-05
1.16211e-05
1.16455e-05
1.16455e-05
1.16211e-05
1.16455e-05
1.16211e-05
1.16455e-05
1.16211e-05
1.16211e-05
1.16211e-05
1.16211e-05
1.16211e-05
1.16211e-05
1.16211e-05
1.16211e-05
1.16211e-05
1.16211e-05
1.16211e-05
1.16211e-05
1.16211e-05
1.16211e-05
1.16211e-05
1.16211e-05
1.16211e-05
1.16211e-05
1.16211e-05
1.16211e-05
1.16211e-05
1.16211e-05
1.16211e-05
1.16211e-05
1.16211e-05
1.16211e-05
1.15967e-05
1.16211e-05
1.16211e-05
1.16211e-05
1.15967e-05
1.15967e-05
1.16211e-05
1.16211e-05
1.16211e-05
1.16211e-05
1.16211e-05
1.16211e-05
1.16211e-05
1.16211e-05
1.16211e-05
1.16211e-05
1.15967e-05
1.16211e-05
1.16211e-05
1.15967e-05
1.16211e-05
1.15967e-05
1.15967e-05
1.15967e-05
1.15967e-05
1.15967e-05
1.15967e-05
1.15967e-05
1.15967e-05
1.15967e-05
1.16211e-05
1.15967e-05
1.15967e-05
1.15967e-05
1.15967e-05
1.15967e-05
1.15967e-05
1.15967e-05
1.15967e-05
1.15967e-05
1.15967e-05
1.15967e-05
1.15967e-05
1.15967e-05
1.15967e-05
1.15967e-05
1.15967e-05
1.15967e-05
1.15967e-05
1.15967e-05
1.15967e-05
1.15967e-05
1.15967e-05
1.15967e-05
1.15967e-05
1.15967e-05
1.15967e-05
1.15967e-05
1.15967e-05
1.15967e-05
1.15967e-05
1.15967e-05
1.15967e-05
1.15967e-05
1.15967e-05
1.15967e-05
1.15967e-05
1.15967e-05
1.15967e-05
1.15967e-05
1.15967e-05
1.15967e-05
1.15967e-05
1.15967e-05
1.15967e-05
1.15723e-05
1.15723e-05
1.15967e-05
1.15723e-05
1.15723e-05
1.15723e-05
1.15967e-05
1.15967e-05
1.15723e-05
1.15723e-05
1.15723e-05
1.15723e-05
1.15723e-05
1.15723e-05
1.15723e-05
1.15723e-05
1.15723e-05
1.15723e-05
1.15723e-05
1.15723e-05
1.15723e-05
1.15723e-05
1.15723e-05
1.15723e-05
1.15723e-05
1.15723e-05
1.15723e-05
1.15723e-05
1.15723e-05
1.15723e-05
1.15723e-05
1.15723e-05
1.15723e-05
1.15723e-05
1.15723e-05
1.15723e-05
1.15723e-05
1.15479e-05
1.15723e-05
1.15723e-05
1.15479e-05
1.15479e-05
1.15479e-05
1.15723e-05
1.15479e-05
1.15479e-05
1.15479e-05
1.15723e-05
1.15479e-05
1.15479e-05
1.15479e-05
1.15479e-05
1.15479e-05
1.15479e-05
1.15479e-05
1.15479e-05
1.15479e-05
1.15479e-05
1.15479e-05
1.15479e-05
1.15479e-05
1.15479e-05
1.15479e-05
1.15479e-05
1.15479e-05
1.15479e-05
1.15479e-05
1.15479e-05
1.15479e-05
1.15479e-05
1.15479e-05
1.15479e-05
1.15479e-05
1.15479e-05
1.15479e-05
1.15479e-05
1.15479e-05
1.15234e-05
1.15479e-05
1.15479e-05
1.15234e-05
1.15479e-05
1.15479e-05
1.15479e-05
1.15234e-05
1.15234e-05
1.15234e-05
1.15234e-05
1.15234e-05
1.15234e-05
1.15234e-05
1.15479e-05
1.15234e-05
1.15234e-05
1.15234e-05
1.15234e-05
1.15234e-05
1.15234e-05
1.15234e-05
1.15234e-05
1.15234e-05
1.15234e-05
1.15234e-05
1.15234e-05
1.15234e-05
1.15234e-05
1.15234e-05
1.15234e-05
1.15234e-05
1.15234e-05
1.15234e-05
1.15234e-05
1.15234e-05
1.15234e-05
1.15234e-05
1.15234e-05
1.15234e-05
1.15234e-05
1.15234e-05
1.15234e-05
1.15234e-05
1.15234e-05
1.15234e-05
1.15234e-05
1.15234e-05
1.15234e-05
1.15234e-05
1.15234e-05
1.15234e-05
1.15234e-05
1.15234e-05
1.1499e-05
1.1499e-05
1.1499e-05
1.1499e-05
1.1499e-05
1.1499e-05
1.1499e-05
1.1499e-05
1.1499e-05
1.1499e-05
1.1499e-05
1.1499e-05
1.1499e-05
1.1499e-05
1.1499e-05
1.1499e-05
1.1499e-05
1.1499e-05
1.1499e-05
1.1499e-05
1.1499e-05
1.14746e-05
1.1499e-05
1.1499e-05
1.1499e-05
1.1499e-05
1.1499e-05
1.1499e-05
1.1499e-05
1.1499e-05
1.1499e-05
1.14746e-05
1.1499e-05
1.14746e-05
1.1499e-05
1.1499e-05
1.14746e-05
1.14746e-05
1.14746e-05
1.14746e-05
1.14746e-05
1.1499e-05
1.14746e-05
1.1499e-05
1.14746e-05
1.1499e-05
1.14746e-05
1.1499e-05
1.1499e-05
1.14746e-05
1.14746e-05
1.1499e-05
1.14746e-05
1.1499e-05
1.14746e-05
1.1499e-05
1.1499e-05
1.1499e-05
1.1499e-05
1.1499e-05
1.1499e-05
1.1499e-05
1.1499e-05
1.1499e-05
1.1499e-05
1.1499e-05
1.1499e-05
1.1499e-05
1.1499e-05
1.1499e-05
1.1499e-05
1.1499e-05
1.15234e-05
1.1499e-05
1.15234e-05
1.1499e-05
1.15234e-05
1.15234e-05
1.15234e-05
1.15234e-05
1.15234e-05
1.15234e-05
1.15234e-05
1.15234e-05
1.15234e-05
1.15234e-05
1.15234e-05
1.15234e-05
1.15479e-05
1.15234e-05
1.15234e-05
1.15479e-05
1.15479e-05
1.15234e-05
1.15479e-05
1.15479e-05
1.15479e-05
1.15479e-05
1.15479e-05
1.15479e-05
1.15723e-05
1.15479e-05
1.15723e-05
1.15723e-05
1.15723e-05
1.15723e-05
1.15723e-05
1.15723e-05
1.15967e-05
1.15723e-05
1.15723e-05
1.15967e-05
1.15967e-05
1.15967e-05
1.15967e-05
1.15967e-05
1.15967e-05
1.15967e-05
1.15967e-05
1.15967e-05
1.16211e-05
1.15967e-05
1.16211e-05
1.16211e-05
1.16211e-05
1.16211e-05
1.16211e-05
1.16211e-05
1.16211e-05
1.16211e-05
1.16211e-05
1.16211e-05
1.16455e-05
1.16211e-05
1.16455e-05
1.16455e-05
1.16455e-05
1.16455e-05
1.16455e-05
1.16455e-05
1.16455e-05
1.16455e-05
1.16455e-05
1.16455e-05
1.16455e-05
1.16455e-05
1.16455e-05
1.16455e-05
1.16699e-05
1.16455e-05
1.16699e-05
1.16699e-05
1.16699e-05
1.16699e-05
1.16699e-05
1.16699e-05
1.16699e-05
1.16699e-05
1.16699e-05
1.16699e-05
1.16699e-05
1.16699e-05
1.16699e-05
1.16699e-05
1.16699e-05
1.16699e-05
1.16699e-05
1.16699e-05
1.16699e-05
1.16699e-05
1.16699e-05
1.16699e-05
1.16699e-05
1.16699e-05
1.16699e-05
1.16699e-05
1.16699e-05
1.16699e-05
1.16699e-05
1.16699e-05
1.16699e-05
1.16699e-05
1.16699e-05
1.16699e-05
1.16699e-05
1.16699e-05
1.16699e-05
1.16699e-05
1.16699e-05
1.16699e-05
1.16699e-05
1.16943e-05
1.16943e-05
1.16943e-05
1.16943e-05
1.16943e-05
1.16943e-05
1.16943e-05
1.16943e-05
1.16943e-05
1.16943e-05
1.16943e-05
1.16943e-05
1.16943e-05
1.16943e-05
1.16943e-05
1.16943e-05
1.16943e-05
1.16943e-05
1.16943e-05
1.16943e-05
1.16943e-05
1.16943e-05
1.16943e-05
1.16943e-05
1.16943e-05
1.16943e-05
1.16943e-05
1.16943e-05
1.16943e-05
1.16943e-05
1.16699e-05
1.16943e-05
1.16699e-05
1.16943e-05
1.16943e-05
1.16943e-05
1.16699e-05
1.16943e-05
1.16699e-05
1.16699e-05
1.16699e-05
1.16699e-05
1.16699e-05
1.16699e-05
1.16699e-05
1.16699e-05
1.16699e-05
1.16699e-05
1.16699e-05
1.16699e-05
1.16699e-05
1.16699e-05
1.16699e-05
1.16699e-05
1.16699e-05
1.16699e-05
1.16455e-05
1.16455e-05
1.16455e-05
1.16455e-05
1.16455e-05
1.16455e-05
1.16455e-05
1.16455e-05
1.16455e-05
1.16211e-05
1.16455e-05
1.16455e-05
1.16455e-05
1.16455e-05
1.16455e-05
1.16455e-05
1.16455e-05
1.16455e-05
1.16455e-05
1.16455e-05
1.16455e-05
1.16211e-05
1.16211e-05
1.16211e-05
1.16211e-05
1.16211e-05
1.16211e-05
1.16211e-05
1.16211e-05
1.16211e-05
1.16211e-05
1.16211e-05
1.16211e-05
1.16211e-05
1.16211e-05
1.15967e-05
1.15967e-05
1.16211e-05
1.15967e-05
1.15967e-05
1.15967e-05
1.15967e-05
1.15723e-05
1.15723e-05
1.15723e-05
1.15723e-05
1.15723e-05
1.15723e-05
1.15723e-05
1.15723e-05
1.15723e-05
1.15723e-05
1.15723e-05
1.15723e-05
1.15723e-05
1.15723e-05
1.15723e-05
1.15967e-05
1.15723e-05
1.15723e-05
1.15967e-05
1.15967e-05
1.15723e-05
1.15967e-05
1.15967e-05
1.15967e-05
1.15967e-05
1.15967e-05
1.15723e-05
1.15967e-05
1.15967e-05
1.15967e-05
1.15967e-05
1.15967e-05
1.15967e-05
1.15967e-05
1.15967e-05
1.15967e-05
1.15967e-05
1.15967e-05
1.15967e-05
1.15967e-05
1.15967e-05
1.15967e-05
1.15967e-05
1.15967e-05
1.15967e-05
1.15967e-05
1.15967e-05
1.15967e-05
1.15967e-05
1.15967e-05
1.15967e-05
1.15967e-05
1.15967e-05
1.16211e-05
1.15967e-05
1.16211e-05
1.16211e-05
1.16211e-05
1.16211e-05
1.16211e-05
1.16211e-05
1.16211e-05
1.16211e-05
1.16211e-05
1.16211e-05
1.16211e-05
1.16211e-05
1.16455e-05
1.16211e-05
1.16455e-05
1.16211e-05
1.16455e-05
1.16455e-05
1.16455e-05
1.16455e-05
1.16455e-05
1.16455e-05
1.16455e-05
1.16455e-05
1.16699e-05
1.16699e-05
1.16699e-05
1.16699e-05
1.16699e-05
1.16699e-05
1.16699e-05
1.16699e-05
1.16943e-05
1.16699e-05
1.16699e-05
1.16943e-05
1.16943e-05
1.16943e-05
1.16943e-05
1.16943e-05
1.17188e-05
1.17188e-05
1.17188e-05
1.17188e-05
1.17188e-05
1.17188e-05
1.17188e-05
1.17188e-05
1.17432e-05
1.17188e-05
1.17188e-05
1.17432e-05
1.17432e-05
1.17432e-05
1.17432e-05
1.17432e-05
1.17432e-05
1.17432e-05
1.17432e-05
1.17432e-05
1.17432e-05
1.17676e-05
1.17676e-05
1.17676e-05
1.17676e-05
1.17676e-05
1.17676e-05
1.17676e-05
1.1792e-05
1.17676e-05
1.1792e-05
1.1792e-05
1.1792e-05
1.1792e-05
1.1792e-05
1.1792e-05
1.1792e-05
1.1792e-05
1.1792e-05
1.1792e-05
1.1792e-05
1.1792e-05
1.18164e-05
1.18164e-05
1.18164e-05
1.18164e-05
1.18164e-05
1.18164e-05
1.18164e-05
1.18164e-05
1.18164e-05
1.18408e-05
1.18164e-05
1.18164e-05
1.18408e-05
1.18408e-05
1.18408e-05
1.18408e-05
1.18408e-05
1.18408e-05
1.18408e-05
1.18408e-05
1.18652e-05
1.18408e-05
1.18408e-05
1.18652e-05
1.18652e-05
1.18652e-05
1.18652e-05
1.18652e-05
1.18652e-05
1.18652e-05
1.18652e-05
1.18652e-05
1.18652e-05
1.18652e-05
1.18652e-05
1.18652e-05
1.18652e-05
1.18652e-05
1.18896e-05
1.18896e-05
1.18896e-05
1.18896e-05
1.18896e-05
1.18896e-05
1.18896e-05
1.18896e-05
1.18896e-05
1.18896e-05
1.18896e-05
1.18896e-05
1.18896e-05
1.18896e-05
1.18896e-05
1.18896e-05
1.18896e-05
1.18896e-05
1.19141e-05
1.18896e-05
1.19141e-05
1.19141e-05
1.19141e-05
1.19141e-05
1.19141e-05
1.19141e-05
1.19141e-05
1.19141e-05
1.19141e-05
1.19141e-05
1.19385e-05
1.19385e-05
1.19385e-05
1.19385e-05
1.19385e-05
1.19385e-05
1.19385e-05
1.19385e-05
1.19629e-05
1.19629e-05
1.19629e-05
1.19629e-05
1.19629e-05
1.19629e-05
1.19873e-05
1.19873e-05
1.19873e-05
1.19873e-05
1.19873e-05
1.20117e-05
1.20117e-05
1.20117e-05
1.20117e-05
1.20117e-05
1.20117e-05
1.20117e-05
1.20361e-05
1.20361e-05
1.20361e-05
1.20361e-05
1.20605e-05
1.20605e-05
1.20605e-05
1.20605e-05
1.20605e-05
1.20605e-05
1.20605e-05
1.2085e-05
1.2085e-05
1.2085e-05
1.2085e-05
1.2085e-05
1.21094e-05
1.21094e-05
1.21094e-05
1.21094e-05
1.21338e-05
1.21338e-05
1.21338e-05
1.21338e-05
1.21338e-05
1.21582e-05
1.21582e-05
1.21582e-05
1.21826e-05
1.21826e-05
1.21826e-05
1.21826e-05
1.21826e-05
1.2207e-05
1.2207e-05
1.2207e-05
1.2207e-05
1.2207e-05
1.22314e-05
1.22314e-05
1.22314e-05
1.22314e-05
1.22559e-05
1.22559e-05
1.22559e-05
1.22559e-05
1.22803e-05
1.22803e-05
1.22803e-05
1.22803e-05
1.23047e-05
1.23047e-05
1.23047e-05
1.23047e-05
1.23047e-05
1.23047e-05
1.23047e-05
1.23291e-05
1.23291e-05
1.23291e-05
1.23535e-05
1.23291e-05
1.23291e-05
1.23535e-05
1.23535e-05
1.23535e-05
1.23779e-05
1.23535e-05
1.23779e-05
1.23779e-05
1.23779e-05
1.23779e-05
1.24023e-05
1.23779e-05
1.24023e-05
1.24023e-05
1.24023e-05
1.24023e-05
1.24023e-05
1.24023e-05
1.24023e-05
1.24023e-05
1.24268e-05
1.24023e-05
1.24268e-05
1.24268e-05
1.24268e-05
1.24268e-05
1.24512e-05
1.24512e-05
1.24512e-05
1.24268e-05
1.24512e-05
1.24512e-05
1.24512e-05
1.24512e-05
1.24512e-05
1.24512e-05
1.24512e-05
1.24756e-05
1.24756e-05
1.24756e-05
1.24756e-05
1.24756e-05
1.24756e-05
1.24756e-05
1.24756e-05
1.24756e-05
1.25e-05
1.24756e-05
1.25e-05
1.25e-05
1.25e-05
1.25e-05
1.25e-05
1.25e-05
1.25e-05
1.25e-05
1.25e-05
1.25e-05
1.25e-05
1.25e-05
1.25244e-05
1.25e-05
1.25244e-05
1.25244e-05
1.25244e-05
1.25244e-05
1.25244e-05
1.25244e-05
1.25244e-05
1.25244e-05
1.25244e-05
1.25244e-05
1.25244e-05
1.25244e-05
1.25244e-05
1.25244e-05
1.25244e-05
1.25244e-05
1.25244e-05
1.25244e-05
1.25244e-05
1.25244e-05
1.25244e-05
1.25244e-05
1.25244e-05
1.25244e-05
1.25244e-05
1.25244e-05
1.25244e-05
1.25244e-05
1.25244e-05
1.25244e-05
1.25244e-05
1.25244e-05
1.25244e-05
1.25244e-05
1.25244e-05
1.25244e-05
1.25244e-05
1.25244e-05
1.25244e-05
1.25244e-05
1.25244e-05
1.25244e-05
1.25244e-05
1.25244e-05
1.25244e-05
1.25244e-05
1.25244e-05
1.25244e-05
1.25244e-05
1.25244e-05
1.25244e-05
1.25244e-05
1.25244e-05
1.25e-05
1.25e-05
1.25244e-05
1.25244e-05
1.25e-05
1.25244e-05
1.25e-05
1.25e-05
1.25e-05
1.25e-05
1.25e-05
1.25244e-05
1.25e-05
1.25e-05
1.25e-05
1.25e-05
1.25e-05
1.25e-05
1.25e-05
1.25e-05
1.25e-05
1.25e-05
1.25e-05
1.25e-05
1.25e-05
1.25e-05
1.25e-05
1.25e-05
1.25e-05
1.25e-05
1.25e-05
1.25e-05
1.25e-05
1.25e-05
1.25e-05
1.25e-05
1.25e-05
1.25e-05
1.25e-05
1.25e-05
1.25e-05
1.25e-05
1.25e-05
1.25e-05
1.25e-05
1.25e-05
1.25e-05
1.25e-05
1.25e-05
1.25e-05
1.25e-05
1.25e-05
1.24756e-05
1.25e-05
1.25e-05
1.25e-05
1.25e-05
1.25e-05
1.25e-05
1.25e-05
1.25e-05
1.25e-05
1.25e-05
1.25e-05
1.25e-05
1.25e-05
1.25e-05
1.25e-05
1.25e-05
1.25e-05
1.25e-05
1.25e-05
1.25e-05
1.25244e-05
1.25244e-05
1.25244e-05
1.25488e-05
1.25488e-05
1.25488e-05
1.25732e-05
1.25732e-05
1.25732e-05
1.25732e-05
1.25732e-05
1.25732e-05
1.25977e-05
1.25977e-05
1.26221e-05
1.25977e-05
1.26221e-05
1.25977e-05
1.26221e-05
1.26221e-05
1.26221e-05
1.26221e-05
1.26465e-05
1.26465e-05
1.26465e-05
1.26465e-05
1.26465e-05
1.26465e-05
1.26465e-05
1.26465e-05
1.26465e-05
1.26465e-05
1.26709e-05
1.26709e-05
1.26709e-05
1.26709e-05
1.26709e-05
1.26709e-05
1.26709e-05
1.26709e-05
1.26709e-05
1.26953e-05
1.26953e-05
1.26953e-05
1.26953e-05
1.26953e-05
1.27197e-05
1.27197e-05
1.27197e-05
1.27197e-05
1.27441e-05
1.27441e-05
1.27686e-05
1.27441e-05
1.27686e-05
1.2793e-05
1.2793e-05
1.2793e-05
1.28174e-05
1.28174e-05
1.28418e-05
1.28174e-05
1.28418e-05
1.28418e-05
1.28662e-05
1.28662e-05
1.28906e-05
1.28906e-05
1.28906e-05
1.28906e-05
1.2915e-05
1.28906e-05
1.2915e-05
1.2915e-05
1.29395e-05
1.29395e-05
1.29395e-05
1.29395e-05
1.29639e-05
1.29395e-05
1.29639e-05
1.29639e-05
1.29639e-05
1.29639e-05
1.29883e-05
1.29639e-05
1.29883e-05
1.29883e-05
1.29883e-05
1.29883e-05
1.30127e-05
1.29883e-05
1.30127e-05
1.30127e-05
1.30371e-05
1.30127e-05
1.30371e-05
1.30371e-05
1.30371e-05
1.30371e-05
1.30615e-05
1.30371e-05
1.30615e-05
1.30615e-05
1.30615e-05
1.30615e-05
1.30859e-05
1.30859e-05
1.30859e-05
1.30859e-05
1.30859e-05
1.30859e-05
1.31104e-05
1.30859e-05
1.31104e-05
1.31104e-05
1.31104e-05
1.31104e-05
1.31348e-05
1.31348e-05
1.31348e-05
1.31104e-05
1.31592e-05
1.31348e-05
1.31592e-05
1.31592e-05
1.31836e-05
1.31836e-05
1.31836e-05
1.31836e-05
1.3208e-05
1.31836e-05
1.3208e-05
1.3208e-05
1.32324e-05
1.32324e-05
1.32324e-05
1.32324e-05
1.32568e-05
1.32568e-05
1.32568e-05
1.32812e-05
1.32812e-05
1.32812e-05
1.32812e-05
1.33057e-05
1.33057e-05
1.33057e-05
1.32812e-05
1.32812e-05
1.33057e-05
1.33057e-05
1.33057e-05
1.32812e-05
1.33057e-05
1.33057e-05
1.33057e-05
1.33057e-05
1.33057e-05
1.33301e-05
1.33301e-05
1.33057e-05
1.33301e-05
1.33301e-05
1.33545e-05
1.33301e-05
1.33545e-05
1.33545e-05
1.33545e-05
1.33545e-05
1.34033e-05
1.33789e-05
1.33789e-05
1.34033e-05
1.34277e-05
1.34277e-05
1.34277e-05
1.34277e-05
1.34521e-05
1.34521e-05
1.34766e-05
1.34766e-05
1.34766e-05
1.3501e-05
1.3501e-05
1.3501e-05
1.35254e-05
1.35254e-05
1.35498e-05
1.35254e-05
1.35498e-05
1.35498e-05
1.35498e-05
1.35498e-05
1.35498e-05
1.35498e-05
1.35498e-05
1.35498e-05
1.35498e-05
1.35498e-05
1.35742e-05
1.35498e-05
1.35498e-05
1.35742e-05
1.35742e-05
1.35498e-05
1.35742e-05
1.35742e-05
1.35742e-05
1.35498e-05
1.35742e-05
1.35498e-05
1.35742e-05
1.35742e-05
1.35742e-05
1.35742e-05
1.35742e-05
1.35742e-05
1.35742e-05
1.35742e-05
1.35742e-05
1.35742e-05
1.35742e-05
1.35742e-05
1.35742e-05
1.35742e-05
1.35742e-05
1.35742e-05
1.35742e-05
1.35742e-05
1.35742e-05
1.35742e-05
1.35742e-05
1.35742e-05
1.35742e-05
1.35742e-05
1.35742e-05
1.35742e-05
1.35742e-05
1.35742e-05
1.35742e-05
1.35742e-05
1.35742e-05
1.35742e-05
1.35742e-05
1.35742e-05
1.35986e-05
1.35986e-05
1.35986e-05
1.35986e-05
1.35986e-05
1.35986e-05
1.35986e-05
1.35986e-05
1.35742e-05
1.35742e-05
1.35986e-05
1.35986e-05
1.35742e-05
1.35986e-05
1.35742e-05
1.35986e-05
1.35742e-05
1.35742e-05
1.35742e-05
1.35986e-05
1.35742e-05
1.35986e-05
1.3623e-05
1.3623e-05
1.35986e-05
1.3623e-05
1.3623e-05
1.3623e-05
1.3623e-05
1.3623e-05
1.36475e-05
1.36475e-05
1.36475e-05
1.36719e-05
1.36719e-05
1.36719e-05
1.36719e-05
1.36963e-05
1.36963e-05
1.36963e-05
1.36963e-05
1.37207e-05
1.37451e-05
1.37451e-05
1.37451e-05
1.37451e-05
1.37695e-05
1.37695e-05
1.37695e-05
1.37695e-05
1.37939e-05
1.37939e-05
1.38184e-05
1.38428e-05
1.38428e-05
1.38428e-05
1.38672e-05
1.38672e-05
1.38672e-05
1.38916e-05
1.38916e-05
1.38916e-05
1.3916e-05
1.3916e-05
1.3916e-05
1.39404e-05
1.39404e-05
1.39404e-05
1.39648e-05
1.39648e-05
1.39648e-05
1.39648e-05
1.39893e-05
1.39893e-05
1.40137e-05
1.40137e-05
1.40381e-05
1.40137e-05
1.40381e-05
1.40381e-05
1.40625e-05
1.40381e-05
1.40625e-05
1.40625e-05
1.40625e-05
1.40869e-05
1.40869e-05
1.40869e-05
1.41113e-05
1.41113e-05
1.41113e-05
1.41113e-05
1.41357e-05
1.41357e-05
1.41357e-05
1.41357e-05
1.41602e-05
1.41602e-05
1.41602e-05
1.41602e-05
1.41602e-05
1.41846e-05
1.41846e-05
1.41846e-05
1.4209e-05
1.4209e-05
1.4209e-05
1.4209e-05
1.42334e-05
1.42334e-05
1.42334e-05
1.42334e-05
1.42334e-05
1.42578e-05
1.42578e-05
1.42578e-05
1.42578e-05
1.42578e-05
1.42822e-05
1.42822e-05
1.42822e-05
1.43066e-05
1.43066e-05
1.43066e-05
1.43311e-05
1.43311e-05
1.43311e-05
1.43066e-05
1.43311e-05
1.43311e-05
1.43555e-05
1.43311e-05
1.43555e-05
1.43555e-05
1.43799e-05
1.43555e-05
1.43799e-05
1.43799e-05
1.43799e-05
1.43799e-05
1.44043e-05
1.44043e-05
1.44043e-05
1.44043e-05
1.44287e-05
1.44287e-05
1.44287e-05
1.44043e-05
1.44287e-05
1.44287e-05
1.44531e-05
1.44287e-05
1.44531e-05
1.44531e-05
1.44775e-05
1.44531e-05
1.44775e-05
1.44775e-05
1.44775e-05
1.44775e-05
1.4502e-05
1.4502e-05
1.45264e-05
1.4502e-05
1.45264e-05
1.45264e-05
1.45508e-05
1.45264e-05
1.45752e-05
1.45996e-05
1.45996e-05
1.4624e-05
1.46484e-05
1.46484e-05
1.46729e-05
1.46729e-05
1.46973e-05
1.46973e-05
1.47217e-05
1.47217e-05
1.47461e-05
1.47461e-05
1.47461e-05
1.47461e-05
1.47705e-05
1.47705e-05
1.47949e-05
1.47705e-05
1.47949e-05
1.47949e-05
1.47949e-05
1.47949e-05
1.48193e-05
1.48193e-05
1.48437e-05
1.48193e-05
1.48437e-05
1.48437e-05
1.48437e-05
1.48437e-05
1.48682e-05
1.48682e-05
1.48682e-05
1.48682e-05
1.48682e-05
1.48682e-05
1.48926e-05
1.48682e-05
1.48926e-05
1.4917e-05
1.4917e-05
1.4917e-05
1.4917e-05
1.49414e-05
1.49414e-05
1.49414e-05
1.49414e-05
1.49658e-05
1.49658e-05
1.49658e-05
1.49902e-05
1.50146e-05
1.50146e-05
1.50146e-05
1.50146e-05
1.50391e-05
1.50391e-05
1.50391e-05
1.50635e-05
1.50635e-05
1.50635e-05
1.50635e-05
1.50635e-05
1.50635e-05
1.50635e-05
1.50635e-05
1.50635e-05
1.50391e-05
1.50391e-05
1.50391e-05
1.50635e-05
1.50635e-05
1.50635e-05
1.50391e-05
1.50635e-05
1.50635e-05
1.50879e-05
1.50879e-05
1.51123e-05
1.51123e-05
1.51367e-05
1.51367e-05
1.51367e-05
1.51611e-05
1.51855e-05
1.51855e-05
1.521e-05
1.521e-05
1.52344e-05
1.52344e-05
1.52588e-05
1.52588e-05
1.52832e-05
1.52832e-05
1.53076e-05
1.53076e-05
1.5332e-05
1.5332e-05
1.53809e-05
1.53809e-05
1.54053e-05
1.54053e-05
1.54297e-05
1.54297e-05
1.54541e-05
1.54541e-05
1.54785e-05
1.54785e-05
1.55029e-05
1.55029e-05
1.55273e-05
1.55273e-05
1.55518e-05
1.55273e-05
1.55518e-05
1.55762e-05
1.55762e-05
1.56006e-05
1.56006e-05
1.56006e-05
1.5625e-05
1.5625e-05
1.56494e-05
1.56494e-05
1.56494e-05
1.56494e-05
1.56738e-05
1.56982e-05
1.56982e-05
1.56982e-05
1.56982e-05
1.57227e-05
1.57227e-05
1.57227e-05
1.57471e-05
1.57471e-05
1.57715e-05
1.57471e-05
1.57715e-05
1.57959e-05
1.57959e-05
1.57715e-05
1.57959e-05
1.57959e-05
1.58203e-05
1.57959e-05
1.58203e-05
1.58447e-05
1.58447e-05
1.58447e-05
1.58691e-05
1.58691e-05
1.58691e-05
1.58691e-05
1.58936e-05
1.58936e-05
1.58936e-05
1.58936e-05
1.5918e-05
1.5918e-05
1.5918e-05
1.5918e-05
1.59424e-05
1.59424e-05
1.59424e-05
1.59424e-05
1.59668e-05
1.59668e-05
1.59668e-05
1.59668e-05
1.59912e-05
1.59668e-05
1.59912e-05
1.59668e-05
1.59912e-05
1.59912e-05
1.59912e-05
1.59912e-05
1.60156e-05
1.60156e-05
1.60156e-05
1.60156e-05
1.60156e-05
1.60156e-05
1.604e-05
1.60156e-05
1.60645e-05
1.604e-05
1.60645e-05
1.604e-05
1.60645e-05
1.60645e-05
1.60645e-05
1.60645e-05
1.60889e-05
1.60889e-05
1.60889e-05
1.60889e-05
1.60889e-05
1.61133e-05
1.60889e-05
1.60889e-05
1.61133e-05
1.61133e-05
1.61133e-05
1.61133e-05
1.61133e-05
1.61133e-05
1.61133e-05
1.61133e-05
1.61377e-05
1.61377e-05
1.61377e-05
1.61133e-05
1.61377e-05
1.61133e-05
1.61377e-05
1.61377e-05
1.61377e-05
1.61377e-05
1.61377e-05
1.61377e-05
1.61621e-05
1.61377e-05
1.61621e-05
1.61377e-05
1.61621e-05
1.61377e-05
1.61377e-05
1.61377e-05
1.61621e-05
1.61621e-05
1.61621e-05
1.61621e-05
1.61865e-05
1.61621e-05
1.61621e-05
1.61621e-05
1.61865e-05
1.61865e-05
1.61865e-05
1.61621e-05
1.61865e-05
1.61865e-05
1.61865e-05
1.61621e-05
1.61865e-05
1.61865e-05
1.61865e-05
1.61865e-05
1.61865e-05
1.61865e-05
1.61865e-05
1.61621e-05
1.61865e-05
1.62109e-05
1.61865e-05
1.61865e-05
1.61865e-05
1.61865e-05
1.62109e-05
1.62109e-05
1.62109e-05
1.62109e-05
1.62109e-05
1.62109e-05
1.62354e-05
1.62354e-05
1.62354e-05
1.62354e-05
1.62354e-05
1.62598e-05
1.62598e-05
1.62842e-05
1.62842e-05
1.62842e-05
1.62842e-05
1.62842e-05
1.63086e-05
1.63086e-05
1.63086e-05
1.63086e-05
1.63086e-05
1.63086e-05
1.6333e-05
1.63086e-05
1.6333e-05
1.6333e-05
1.63086e-05
1.63086e-05
1.6333e-05
1.6333e-05
1.6333e-05
1.63086e-05
1.6333e-05
1.6333e-05
1.6333e-05
1.6333e-05
1.63574e-05
1.6333e-05
1.6333e-05
1.63086e-05
1.6333e-05
1.6333e-05
1.6333e-05
1.6333e-05
1.6333e-05
1.6333e-05
1.6333e-05
1.6333e-05
1.6333e-05
1.6333e-05
1.63574e-05
1.6333e-05
1.63574e-05
1.6333e-05
1.63574e-05
1.6333e-05
1.63574e-05
1.6333e-05
1.63574e-05
1.6333e-05
1.63574e-05
1.6333e-05
1.63574e-05
1.6333e-05
1.63574e-05
1.6333e-05
1.6333e-05
1.6333e-05
1.6333e-05
1.6333e-05
1.6333e-05
1.6333e-05
1.63574e-05
1.63574e-05
1.63574e-05
1.6333e-05
1.63574e-05
1.63574e-05
1.63574e-05
1.63574e-05
1.63574e-05
1.63574e-05
1.63574e-05
1.63574e-05
1.63574e-05
1.63818e-05
1.63574e-05
1.63818e-05
1.63818e-05
1.63818e-05
1.63818e-05
1.63818e-05
1.63818e-05
1.63818e-05
1.63818e-05
1.63818e-05
1.64062e-05
1.63818e-05
1.64062e-05
1.63818e-05
1.64062e-05
1.64062e-05
1.64062e-05
1.64062e-05
1.64307e-05
1.64307e-05
1.64307e-05
1.64307e-05
1.64551e-05
1.64307e-05
1.64551e-05
1.64551e-05
1.64551e-05
1.64795e-05
1.64795e-05
1.64795e-05
1.64795e-05
1.65039e-05
1.65039e-05
1.64795e-05
1.65039e-05
1.65283e-05
1.65283e-05
1.65283e-05
1.65527e-05
1.65527e-05
1.65527e-05
1.65527e-05
1.65527e-05
1.65771e-05
1.65771e-05
1.65771e-05
1.65771e-05
1.65771e-05
1.66016e-05
1.66016e-05
1.6626e-05
1.6626e-05
1.6626e-05
1.6626e-05
1.66504e-05
1.66504e-05
1.66748e-05
1.66748e-05
1.66748e-05
1.66992e-05
1.66992e-05
1.66992e-05
1.66992e-05
1.67236e-05
1.67236e-05
1.67236e-05
1.6748e-05
1.6748e-05
1.6748e-05
1.6748e-05
1.67725e-05
1.67725e-05
1.67969e-05
1.67725e-05
1.67969e-05
1.67969e-05
1.68213e-05
1.67969e-05
1.68213e-05
1.68457e-05
1.68457e-05
1.68213e-05
1.68701e-05
1.68701e-05
1.68701e-05
1.68701e-05
1.68945e-05
1.68945e-05
1.68945e-05
1.68701e-05
1.68945e-05
1.68945e-05
1.69189e-05
1.68945e-05
1.69434e-05
1.69434e-05
1.69434e-05
1.69189e-05
1.69434e-05
1.69434e-05
1.69678e-05
1.69434e-05
1.69678e-05
1.69922e-05
1.69922e-05
1.69678e-05
1.69922e-05
1.69922e-05
1.69922e-05
1.69922e-05
1.70166e-05
1.70166e-05
1.70166e-05
1.70166e-05
1.7041e-05
1.7041e-05
1.7041e-05
1.7041e-05
1.70654e-05
1.70654e-05
1.70654e-05
1.70654e-05
1.70898e-05
1.70898e-05
1.70898e-05
1.70898e-05
1.71143e-05
1.71387e-05
1.71387e-05
1.71631e-05
1.71387e-05
1.71631e-05
1.71875e-05
1.71631e-05
1.71875e-05
1.71875e-05
1.72119e-05
1.72119e-05
1.72119e-05
1.72119e-05
1.72363e-05
1.72119e-05
1.72607e-05
1.72607e-05
1.72607e-05
1.72363e-05
1.72607e-05
1.72607e-05
1.72607e-05
1.72607e-05
1.72852e-05
1.72852e-05
1.72852e-05
1.72607e-05
1.72852e-05
1.73096e-05
1.73096e-05
1.72852e-05
1.73096e-05
1.73096e-05
1.73096e-05
1.73096e-05
1.73096e-05
1.73096e-05
1.7334e-05
1.73096e-05
1.7334e-05
1.7334e-05
1.7334e-05
1.7334e-05
1.73584e-05
1.7334e-05
1.7334e-05
1.7334e-05
1.73584e-05
1.7334e-05
1.73584e-05
1.73584e-05
1.73584e-05
1.73584e-05
1.73584e-05
1.73584e-05
1.73584e-05
1.73584e-05
1.73584e-05
1.73584e-05
1.73584e-05
1.73584e-05
1.73584e-05
1.73584e-05
1.73828e-05
1.73828e-05
1.73584e-05
1.73584e-05
1.73828e-05
1.73828e-05
1.73828e-05
1.73584e-05
1.73828e-05
1.73828e-05
1.74072e-05
1.73828e-05
1.74072e-05
1.73828e-05
1.74072e-05
1.73828e-05
1.74072e-05
1.74072e-05
1.74072e-05
1.73828e-05
1.74316e-05
1.74072e-05
1.74316e-05
1.74072e-05
1.74072e-05
1.74316e-05
1.74316e-05
1.74072e-05
1.74316e-05
1.74316e-05
1.74316e-05
1.74316e-05
1.74316e-05
1.74316e-05
1.74316e-05
1.74316e-05
1.74561e-05
1.74316e-05
1.74561e-05
1.74072e-05
1.74561e-05
1.74561e-05
1.74561e-05
1.74316e-05
1.74561e-05
1.74561e-05
1.74561e-05
1.74561e-05
1.74561e-05
1.74561e-05
1.74561e-05
1.74561e-05
1.74805e-05
1.74561e-05
1.74561e-05
1.74561e-05
1.74561e-05
1.74561e-05
1.74805e-05
1.74561e-05
1.74805e-05
1.74561e-05
1.74805e-05
1.74316e-05
1.74805e-05
1.74561e-05
1.74561e-05
1.74561e-05
1.74805e-05
1.74805e-05
1.74561e-05
1.74561e-05
1.74805e-05
1.74561e-05
1.74561e-05
1.74805e-05
1.74561e-05
1.74561e-05
1.74561e-05
1.74561e-05
1.74805e-05
1.74561e-05
1.74561e-05
1.74561e-05
1.74561e-05
1.74561e-05
1.74561e-05
1.74561e-05
1.74561e-05
1.74561e-05
1.74561e-05
1.74316e-05
1.74561e-05
1.74561e-05
1.74561e-05
1.74561e-05
1.74561e-05
1.74561e-05
1.74561e-05
1.74316e-05
1.74561e-05
1.74561e-05
1.74316e-05
1.74316e-05
1.74561e-05
1.74316e-05
1.74561e-05
1.74316e-05
1.74561e-05
1.74561e-05
1.74316e-05
1.74316e-05
1.74561e-05
1.74316e-05
1.74316e-05
1.74072e-05
1.74072e-05
1.74316e-05
1.74316e-05
1.74072e-05
1.74316e-05
1.74316e-05
1.74072e-05
1.74072e-05
1.74072e-05
1.74072e-05
1.74072e-05
1.74072e-05
1.74072e-05
1.74072e-05
1.74072e-05
1.74072e-05
1.74072e-05
1.74072e-05
1.74072e-05
1.73828e-05
1.74072e-05
1.74072e-05
1.73828e-05
1.73828e-05
1.73828e-05
1.73828e-05
1.73828e-05
1.73584e-05
1.73828e-05
1.73584e-05
1.73584e-05
1.73584e-05
1.73828e-05
1.73584e-05
1.73828e-05
1.73584e-05
1.73584e-05
1.73584e-05
1.73584e-05
1.73584e-05
1.73584e-05
1.73584e-05
1.73584e-05
1.7334e-05
1.73584e-05
1.73584e-05
1.7334e-05
1.7334e-05
1.73584e-05
1.7334e-05
1.7334e-05
1.7334e-05
1.7334e-05
1.7334e-05
1.7334e-05
1.7334e-05
1.7334e-05
1.7334e-05
1.7334e-05
1.73096e-05
1.73096e-05
1.73096e-05
1.73096e-05
1.73096e-05
1.73096e-05
1.72852e-05
1.72852e-05
1.72852e-05
1.72852e-05
1.72852e-05
1.72852e-05
1.72852e-05
1.72852e-05
1.72607e-05
1.72607e-05
1.72607e-05
1.72607e-05
1.72607e-05
1.72607e-05
1.72607e-05
1.72607e-05
1.72607e-05
1.72363e-05
1.72119e-05
1.72363e-05
1.72363e-05
1.72363e-05
1.72119e-05
1.72119e-05
1.72119e-05
1.72119e-05
1.71875e-05
1.71875e-05
1.72119e-05
1.72119e-05
1.71875e-05
1.71875e-05
1.71875e-05
1.71875e-05
1.71875e-05
1.71875e-05
1.71875e-05
1.71875e-05
1.71631e-05
1.71631e-05
1.71875e-05
1.71631e-05
1.71387e-05
1.71631e-05
1.71387e-05
1.71387e-05
1.71387e-05
1.71387e-05
1.71387e-05
1.71143e-05
1.71143e-05
1.71143e-05
1.71387e-05
1.71143e-05
1.70898e-05
1.70898e-05
1.70898e-05
1.70898e-05
1.70898e-05
1.70898e-05
1.70898e-05
1.70898e-05
1.70654e-05
1.70898e-05
1.70654e-05
1.70654e-05
1.7041e-05
1.70654e-05
1.70654e-05
1.7041e-05
1.7041e-05
1.7041e-05
1.7041e-05
1.70166e-05
1.7041e-05
1.70166e-05
1.70166e-05
1.70166e-05
1.69922e-05
1.70166e-05
1.69922e-05
1.69922e-05
1.69922e-05
1.69922e-05
1.69922e-05
1.69922e-05
1.69922e-05
1.69922e-05
1.69922e-05
1.69922e-05
1.69678e-05
1.69678e-05
1.69922e-05
1.69678e-05
1.69678e-05
1.69678e-05
1.69434e-05
1.69678e-05
1.69434e-05
1.69678e-05
1.69434e-05
1.69434e-05
1.69434e-05
1.69434e-05
1.69434e-05
1.69434e-05
1.69189e-05
1.69189e-05
1.69189e-05
1.69434e-05
1.69189e-05
1.69189e-05
1.69189e-05
1.68945e-05
1.68945e-05
1.68945e-05
1.68945e-05
1.68945e-05
1.68945e-05
1.68945e-05
1.68945e-05
1.68945e-05
1.68701e-05
1.68701e-05
1.68701e-05
1.68701e-05
1.68701e-05
1.68701e-05
1.68701e-05
1.68701e-05
1.68457e-05
1.68701e-05
1.68701e-05
1.68701e-05
1.68457e-05
1.68457e-05
1.68457e-05
1.68457e-05
1.68457e-05
1.68457e-05
1.68457e-05
1.68457e-05
1.68213e-05
1.68457e-05
1.68213e-05
1.68213e-05
1.68213e-05
1.68213e-05
1.68213e-05
1.68213e-05
1.67969e-05
1.67969e-05
1.67969e-05
1.68213e-05
1.67969e-05
1.67969e-05
1.67969e-05
1.67969e-05
1.67725e-05
1.67725e-05
1.67969e-05
1.67725e-05
1.67725e-05
1.67725e-05
1.67725e-05
1.67725e-05
1.6748e-05
1.67725e-05
1.6748e-05
1.6748e-05
1.6748e-05
1.6748e-05
1.6748e-05
1.6748e-05
1.67236e-05
1.67236e-05
1.67236e-05
1.67236e-05
1.66992e-05
1.67236e-05
1.66992e-05
1.66992e-05
1.66992e-05
1.66992e-05
1.66992e-05
1.66992e-05
1.66992e-05
1.66992e-05
1.66992e-05
1.66748e-05
1.66748e-05
1.66992e-05
1.66748e-05
1.66748e-05
1.66504e-05
1.66748e-05
1.66748e-05
1.66748e-05
1.66504e-05
1.66504e-05
1.66504e-05
1.66504e-05
1.6626e-05
1.66504e-05
1.6626e-05
1.6626e-05
1.6626e-05
1.6626e-05
1.6626e-05
1.6626e-05
1.66016e-05
1.66016e-05
1.6626e-05
1.66016e-05
1.66016e-05
1.66016e-05
1.66016e-05
1.66016e-05
1.66016e-05
1.65771e-05
1.65771e-05
1.65771e-05
1.65771e-05
1.65771e-05
1.65771e-05
1.65771e-05
1.65771e-05
1.65527e-05
1.65771e-05
1.65527e-05
1.65527e-05
1.65527e-05
1.65527e-05
1.65527e-05
1.65527e-05
1.65283e-05
1.65527e-05
1.65283e-05
1.65283e-05
1.65283e-05
1.65283e-05
1.65283e-05
1.65283e-05
1.65039e-05
1.65039e-05
1.65039e-05
1.65039e-05
1.64795e-05
1.64795e-05
1.65039e-05
1.65039e-05
1.64795e-05
1.64795e-05
1.64795e-05
1.64795e-05
1.64795e-05
1.64795e-05
1.64551e-05
1.64551e-05
1.64551e-05
1.64551e-05
1.64551e-05
1.64551e-05
1.64307e-05
1.64307e-05
1.64307e-05
1.64307e-05
1.64307e-05
1.64307e-05
1.64307e-05
1.64307e-05
1.64062e-05
1.64062e-05
1.64062e-05
1.64307e-05
1.64062e-05
1.64062e-05
1.64062e-05
1.64062e-05
1.63818e-05
1.63818e-05
1.64062e-05
1.63818e-05
1.63818e-05
1.63818e-05
1.63818e-05
1.63818e-05
1.63574e-05
1.63574e-05
1.63574e-05
1.63574e-05
1.63574e-05
1.63574e-05
1.63574e-05
1.6333e-05
1.6333e-05
1.6333e-05
1.6333e-05
1.6333e-05
1.6333e-05
1.6333e-05
1.6333e-05
1.6333e-05
1.63086e-05
1.63086e-05
1.63086e-05
1.63086e-05
1.63086e-05
1.63086e-05
1.63086e-05
1.62842e-05
1.62842e-05
1.62842e-05
1.62842e-05
1.62842e-05
1.62842e-05
1.62842e-05
1.62598e-05
1.62842e-05
1.62598e-05
1.62598e-05
1.62598e-05
1.62598e-05
1.62598e-05
1.62598e-05
1.62354e-05
1.62598e-05
1.62354e-05
1.62354e-05
1.62354e-05
1.62354e-05
1.62354e-05
1.62354e-05
1.62354e-05
1.62109e-05
1.62354e-05
1.62109e-05
1.62109e-05
1.62109e-05
1.62109e-05
1.62109e-05
1.62109e-05
1.62109e-05
1.62109e-05
1.62109e-05
1.62109e-05
1.61865e-05
1.61865e-05
1.61865e-05
1.61865e-05
1.61621e-05
1.61865e-05
1.61865e-05
1.61621e-05
1.61621e-05
1.61621e-05
1.61621e-05
1.61621e-05
1.61377e-05
1.61621e-05
1.61621e-05
1.61377e-05
1.61377e-05
1.61377e-05
1.61133e-05
1.61133e-05
1.61133e-05
1.61133e-05
1.61133e-05
1.61133e-05
1.61133e-05
1.61133e-05
1.60889e-05
1.60889e-05
1.60889e-05
1.60889e-05
1.60889e-05
1.60889e-05
1.60889e-05
1.60889e-05
1.60889e-05
1.60889e-05
1.60645e-05
1.60889e-05
1.60645e-05
1.60645e-05
1.60645e-05
1.60645e-05
1.60645e-05
1.60645e-05
1.604e-05
1.60645e-05
1.604e-05
1.604e-05
1.604e-05
1.60645e-05
1.604e-05
1.604e-05
1.60156e-05
1.604e-05
1.60156e-05
1.60156e-05
1.60156e-05
1.60156e-05
1.60156e-05
1.60156e-05
1.60156e-05
1.60156e-05
1.60156e-05
1.59912e-05
1.59912e-05
1.59912e-05
1.59912e-05
1.59912e-05
1.59912e-05
1.59912e-05
1.59912e-05
1.59912e-05
1.59912e-05
1.59912e-05
1.59912e-05
1.59912e-05
1.59668e-05
1.59668e-05
1.59668e-05
1.59668e-05
1.59424e-05
1.59668e-05
1.59668e-05
1.59668e-05
1.59424e-05
1.59424e-05
1.59424e-05
1.59424e-05
1.5918e-05
1.59424e-05
1.5918e-05
1.59424e-05
1.5918e-05
1.5918e-05
1.5918e-05
1.5918e-05
1.5918e-05
1.5918e-05
1.5918e-05
1.5918e-05
1.58936e-05
1.5918e-05
1.5918e-05
1.58936e-05
1.58936e-05
1.58936e-05
1.58936e-05
1.58936e-05
1.58691e-05
1.58936e-05
1.58936e-05
1.58936e-05
1.58691e-05
1.58691e-05
1.58691e-05
1.58691e-05
1.58447e-05
1.58691e-05
1.58447e-05
1.58447e-05
1.58447e-05
1.58447e-05
1.58447e-05
1.58447e-05
1.58203e-05
1.58447e-05
1.58203e-05
1.58447e-05
1.58203e-05
1.58447e-05
1.58203e-05
1.58203e-05
1.57959e-05
1.58203e-05
1.58203e-05
1.57959e-05
1.57959e-05
1.57959e-05
1.57959e-05
1.57959e-05
1.57959e-05
1.57959e-05
1.57959e-05
1.57959e-05
1.57715e-05
1.57959e-05
1.57959e-05
1.57959e-05
1.57715e-05
1.57959e-05
1.57715e-05
1.57715e-05
1.57715e-05
1.57715e-05
1.57715e-05
1.57715e-05
1.57715e-05
1.57471e-05
1.57715e-05
1.57471e-05
1.57471e-05
1.57715e-05
1.57471e-05
1.57471e-05
1.57227e-05
1.57471e-05
1.57227e-05
1.57471e-05
1.57227e-05
1.57227e-05
1.57227e-05
1.57227e-05
1.57227e-05
1.57227e-05
1.57227e-05
1.57227e-05
1.56982e-05
1.56982e-05
1.57227e-05
1.56982e-05
1.56982e-05
1.56982e-05
1.56982e-05
1.56982e-05
1.56982e-05
1.56982e-05
1.56982e-05
1.56982e-05
1.56738e-05
1.56982e-05
1.56738e-05
1.56738e-05
1.56494e-05
1.56738e-05
1.56738e-05
1.56738e-05
1.56494e-05
1.56738e-05
1.56738e-05
1.56494e-05
1.56494e-05
1.56738e-05
1.56494e-05
1.56494e-05
1.5625e-05
1.56494e-05
1.56494e-05
1.56494e-05
1.5625e-05
1.5625e-05
1.5625e-05
1.5625e-05
1.5625e-05
1.5625e-05
1.5625e-05
1.5625e-05
1.56006e-05
1.5625e-05
1.56006e-05
1.56006e-05
1.56006e-05
1.56006e-05
1.56006e-05
1.56006e-05
1.56006e-05
1.56006e-05
1.56006e-05
1.56006e-05
1.56006e-05
1.56006e-05
1.56006e-05
1.56006e-05
1.55762e-05
1.55762e-05
1.55762e-05
1.55762e-05
1.55762e-05
1.55762e-05
1.55762e-05
1.55762e-05
1.55762e-05
1.55762e-05
1.55762e-05
1.55762e-05
1.55518e-05
1.55762e-05
1.55518e-05
1.55518e-05
1.55273e-05
1.55518e-05
1.55273e-05
1.55518e-05
1.55273e-05
1.55273e-05
1.55273e-05
1.55273e-05
1.55273e-05
1.55273e-05
1.55273e-05
1.55273e-05
1.55273e-05
1.55273e-05
1.55273e-05
1.55029e-05
1.55273e-05
1.55273e-05
1.55029e-05
1.55029e-05
1.55029e-05
1.55029e-05
1.55029e-05
1.55029e-05
1.55029e-05
1.55029e-05
1.55029e-05
1.55029e-05
1.55029e-05
1.55029e-05
1.55029e-05
1.54785e-05
1.55029e-05
1.55029e-05
1.55029e-05
1.54785e-05
1.54785e-05
1.54785e-05
1.54785e-05
1.54785e-05
1.54785e-05
1.54785e-05
1.54785e-05
1.54785e-05
1.54785e-05
1.54785e-05
1.54785e-05
1.54785e-05
1.54785e-05
1.54785e-05
1.54785e-05
1.54785e-05
1.54785e-05
1.54785e-05
1.54785e-05
1.54541e-05
1.54785e-05
1.54785e-05
1.54541e-05
1.54541e-05
1.54541e-05
1.54785e-05
1.54541e-05
1.54541e-05
1.54541e-05
1.54785e-05
1.54541e-05
1.54541e-05
1.54785e-05
1.54541e-05
1.54541e-05
1.54541e-05
1.54785e-05
1.54785e-05
1.54785e-05
1.54541e-05
1.54541e-05
1.54785e-05
1.54785e-05
1.54541e-05
1.54785e-05
1.54541e-05
1.54785e-05
1.54541e-05
1.54785e-05
1.54785e-05
1.54541e-05
1.54541e-05
1.54541e-05
1.54785e-05
1.54541e-05
1.54785e-05
1.54785e-05
1.54785e-05
1.54541e-05
1.54541e-05
1.54785e-05
1.54785e-05
1.54541e-05
1.54541e-05
1.54541e-05
1.54785e-05
1.54541e-05
1.54541e-05
1.54541e-05
1.54785e-05
1.54541e-05
1.54541e-05
1.54785e-05
1.54785e-05
1.54785e-05
1.54541e-05
1.54785e-05
1.54785e-05
1.54541e-05
1.54541e-05
1.54541e-05
1.54541e-05
1.54785e-05
1.54785e-05
1.54541e-05
1.54541e-05
1.54541e-05
1.54541e-05
1.54541e-05
1.54541e-05
1.54541e-05
1.54541e-05
1.54541e-05
1.54541e-05
1.54541e-05
1.54541e-05
1.54541e-05
1.54541e-05
1.54541e-05
1.54541e-05
1.54541e-05
1.54541e-05
1.54541e-05
1.54541e-05
1.54541e-05
1.54541e-05
1.54541e-05
1.54541e-05
1.54541e-05
1.54541e-05
1.54541e-05
1.54541e-05
1.54297e-05
1.54541e-05
1.54541e-05
1.54541e-05
1.54541e-05
1.54541e-05
1.54297e-05
1.54297e-05
1.54297e-05
1.54541e-05
1.54297e-05
1.54297e-05
1.54297e-05
1.54297e-05
1.54297e-05
1.54297e-05
1.54297e-05
1.54297e-05
1.54297e-05
1.54297e-05
1.54297e-05
1.54297e-05
1.54297e-05
1.54297e-05
1.54297e-05
1.54297e-05
1.54297e-05
1.54297e-05
1.54297e-05
1.54297e-05
1.54297e-05
1.54297e-05
1.54297e-05
1.54297e-05
1.54297e-05
1.54297e-05
1.54297e-05
1.54053e-05
1.54297e-05
1.54053e-05
1.54053e-05
1.54297e-05
1.54053e-05
1.54053e-05
1.54053e-05
1.54053e-05
1.54053e-05
1.54053e-05
1.54053e-05
1.54053e-05
1.54053e-05
1.54053e-05
1.53809e-05
1.53809e-05
1.53809e-05
1.53809e-05
1.53809e-05
1.53809e-05
1.53809e-05
1.53809e-05
1.53809e-05
1.53809e-05
1.53809e-05
1.53809e-05
1.53809e-05
1.53564e-05
1.53564e-05
1.53564e-05
1.53564e-05
1.53564e-05
1.53564e-05
1.53564e-05
1.53564e-05
1.53564e-05
1.53564e-05
1.53564e-05
1.5332e-05
1.5332e-05
1.53564e-05
1.5332e-05
1.5332e-05
1.53564e-05
1.5332e-05
1.5332e-05
1.5332e-05
1.5332e-05
1.53076e-05
1.5332e-05
1.53076e-05
1.5332e-05
1.5332e-05
1.53076e-05
1.53076e-05
1.53076e-05
1.53076e-05
1.53076e-05
1.53076e-05
1.53076e-05
1.53076e-05
1.53076e-05
1.53076e-05
1.53076e-05
1.53076e-05
1.52832e-05
1.52832e-05
1.53076e-05
1.53076e-05
1.52832e-05
1.52832e-05
1.52832e-05
1.52832e-05
1.52832e-05
1.52832e-05
1.52832e-05
1.52832e-05
1.52832e-05
1.52832e-05
1.52832e-05
1.52588e-05
1.52588e-05
1.52588e-05
1.52588e-05
1.52588e-05
1.52588e-05
1.52588e-05
1.52588e-05
1.52588e-05
1.52588e-05
1.52588e-05
1.52588e-05
1.52344e-05
1.52344e-05
1.52344e-05
1.52344e-05
1.52344e-05
1.52344e-05
1.52344e-05
1.52344e-05
1.52344e-05
1.52344e-05
1.52344e-05
1.52344e-05
1.52344e-05
1.52344e-05
1.52344e-05
1.52344e-05
1.521e-05
1.52344e-05
1.521e-05
1.521e-05
1.521e-05
1.521e-05
1.521e-05
1.521e-05
1.521e-05
1.521e-05
1.521e-05
1.521e-05
1.521e-05
1.51855e-05
1.51855e-05
1.51855e-05
1.51855e-05
1.51855e-05
1.51855e-05
1.51855e-05
1.51855e-05
1.51855e-05
1.51611e-05
1.51855e-05
1.51855e-05
1.51855e-05
1.51611e-05
1.51855e-05
1.51855e-05
1.51611e-05
1.51611e-05
1.51611e-05
1.51611e-05
1.51611e-05
1.51611e-05
1.51611e-05
1.51367e-05
1.51367e-05
1.51367e-05
1.51367e-05
1.51367e-05
1.51367e-05
1.51367e-05
1.51367e-05
1.51367e-05
1.51367e-05
1.51367e-05
1.51367e-05
1.51367e-05
1.51367e-05
1.51123e-05
1.51367e-05
1.51123e-05
1.51123e-05
1.51123e-05
1.51123e-05
1.51123e-05
1.51123e-05
1.51123e-05
1.51123e-05
1.51123e-05
1.50879e-05
1.51123e-05
1.50879e-05
1.51123e-05
1.50879e-05
1.51123e-05
1.50879e-05
1.50879e-05
1.50635e-05
1.50879e-05
1.50635e-05
1.50635e-05
1.50635e-05
1.50635e-05
1.50635e-05
1.50635e-05
1.50635e-05
1.50635e-05
1.50635e-05
1.50391e-05
1.50391e-05
1.50391e-05
1.50635e-05
1.50391e-05
1.50391e-05
1.50391e-05
1.50391e-05
1.50391e-05
1.50391e-05
1.50391e-05
1.50146e-05
1.50146e-05
1.50146e-05
1.50146e-05
1.50146e-05
1.50146e-05
1.50146e-05
1.50146e-05
1.50146e-05
1.50146e-05
1.50146e-05
1.50146e-05
1.50146e-05
1.50146e-05
1.50146e-05
1.49902e-05
1.49902e-05
1.49902e-05
1.49902e-05
1.49902e-05
1.49902e-05
1.49902e-05
1.49902e-05
1.49902e-05
1.49902e-05
1.49902e-05
1.49902e-05
1.49902e-05
1.49658e-05
1.49658e-05
1.49658e-05
1.49658e-05
1.49658e-05
1.49414e-05
1.49414e-05
1.49414e-05
1.49414e-05
1.49414e-05
1.49414e-05
1.49414e-05
1.49414e-05
1.49414e-05
1.4917e-05
1.4917e-05
1.49414e-05
1.49414e-05
1.49414e-05
1.4917e-05
1.4917e-05
1.4917e-05
1.4917e-05
1.4917e-05
1.4917e-05
1.4917e-05
1.4917e-05
1.4917e-05
1.48926e-05
1.4917e-05
1.48926e-05
1.48926e-05
1.48926e-05
1.48926e-05
1.48682e-05
1.48682e-05
1.48926e-05
1.48926e-05
1.48926e-05
1.48682e-05
1.48926e-05
1.48682e-05
1.48682e-05
1.48682e-05
1.48682e-05
1.48682e-05
1.48682e-05
1.48437e-05
1.48437e-05
1.48682e-05
1.48682e-05
1.48437e-05
1.48437e-05
1.48437e-05
1.48437e-05
1.48437e-05
1.48437e-05
1.48437e-05
1.48437e-05
1.48437e-05
1.48437e-05
1.48437e-05
1.48193e-05
1.48193e-05
1.48437e-05
1.48193e-05
1.48193e-05
1.48193e-05
1.48193e-05
1.48193e-05
1.48193e-05
1.48193e-05
1.48193e-05
1.48193e-05
1.48193e-05
1.48193e-05
1.48193e-05
1.48193e-05
1.48193e-05
1.47949e-05
1.47949e-05
1.47949e-05
1.47949e-05
1.47949e-05
1.47949e-05
1.47949e-05
1.47949e-05
1.47705e-05
1.47949e-05
1.47705e-05
1.47705e-05
1.47705e-05
1.47705e-05
1.47705e-05
1.47705e-05
1.47705e-05
1.47705e-05
1.47705e-05
1.47705e-05
1.47705e-05
1.47705e-05
1.47461e-05
1.47461e-05
1.47705e-05
1.47461e-05
1.47461e-05
1.47461e-05
1.47461e-05
1.47461e-05
1.47461e-05
1.47461e-05
1.47461e-05
1.47461e-05
1.47461e-05
1.47217e-05
1.47461e-05
1.47461e-05
1.47217e-05
1.47217e-05
1.47217e-05
1.47217e-05
1.47217e-05
1.47217e-05
1.47217e-05
1.47217e-05
1.47217e-05
1.47217e-05
1.47217e-05
1.47217e-05
1.47217e-05
1.46973e-05
1.46973e-05
1.46973e-05
1.47217e-05
1.46973e-05
1.46973e-05
1.47217e-05
1.46729e-05
1.46973e-05
1.46973e-05
1.46973e-05
1.46729e-05
1.46729e-05
1.46729e-05
1.46729e-05
1.46729e-05
1.46729e-05
1.46729e-05
1.46729e-05
1.46729e-05
1.46484e-05
1.46729e-05
1.46729e-05
1.46484e-05
1.46484e-05
1.46729e-05
1.46729e-05
1.46484e-05
1.46484e-05
1.46484e-05
1.46484e-05
1.46484e-05
1.46484e-05
1.46484e-05
1.46484e-05
1.46484e-05
1.46484e-05
1.46484e-05
1.46484e-05
1.46484e-05
1.46484e-05
1.46484e-05
1.4624e-05
1.4624e-05
1.4624e-05
1.4624e-05
1.4624e-05
1.4624e-05
1.4624e-05
1.4624e-05
1.4624e-05
1.4624e-05
1.4624e-05
1.45996e-05
1.45996e-05
1.4624e-05
1.45996e-05
1.45996e-05
1.45996e-05
1.45996e-05
1.45996e-05
1.45996e-05
1.45996e-05
1.45996e-05
1.45996e-05
1.45752e-05
1.45996e-05
1.45996e-05
1.45752e-05
1.45752e-05
1.45996e-05
1.45752e-05
1.45752e-05
1.45752e-05
1.45752e-05
1.45752e-05
1.45508e-05
1.45752e-05
1.45752e-05
1.45752e-05
1.45752e-05
1.45752e-05
1.45752e-05
1.45508e-05
1.45508e-05
1.45508e-05
1.45508e-05
1.45508e-05
1.45752e-05
1.45508e-05
1.45508e-05
1.45508e-05
1.45508e-05
1.45508e-05
1.45752e-05
1.45508e-05
1.45508e-05
1.45508e-05
1.45508e-05
1.45508e-05
1.45508e-05
1.45508e-05
1.45508e-05
1.45264e-05
1.45508e-05
1.45508e-05
1.45264e-05
1.45264e-05
1.45264e-05
1.45264e-05
1.45264e-05
1.45264e-05
1.45264e-05
1.45264e-05
1.45264e-05
1.45264e-05
1.45264e-05
1.45264e-05
1.45264e-05
1.45264e-05
1.45264e-05
1.45264e-05
1.45264e-05
1.45264e-05
1.45264e-05
1.4502e-05
1.4502e-05
1.4502e-05
1.45264e-05
1.4502e-05
1.4502e-05
1.4502e-05
1.44775e-05
1.44775e-05
1.4502e-05
1.4502e-05
1.44775e-05
1.44775e-05
1.44775e-05
1.44775e-05
1.44775e-05
1.44775e-05
1.44775e-05
1.44775e-05
1.44775e-05
1.44531e-05
1.44775e-05
1.44775e-05
1.44531e-05
1.44531e-05
1.44531e-05
1.44531e-05
1.44531e-05
1.44531e-05
1.44531e-05
1.44531e-05
1.44287e-05
1.44531e-05
1.44531e-05
1.44287e-05
1.44287e-05
1.44287e-05
1.44287e-05
1.44287e-05
1.44287e-05
1.44287e-05
1.44287e-05
1.44287e-05
1.44287e-05
1.44287e-05
1.44287e-05
1.44287e-05
1.44043e-05
1.44043e-05
1.44043e-05
1.44043e-05
1.44043e-05
1.44043e-05
1.44043e-05
1.44043e-05
1.44043e-05
1.44043e-05
1.44043e-05
1.44043e-05
1.44043e-05
1.43799e-05
1.43799e-05
1.43799e-05
1.43799e-05
1.43799e-05
1.43799e-05
1.43799e-05
1.43799e-05
1.43799e-05
1.43555e-05
1.43555e-05
1.43799e-05
1.43555e-05
1.43555e-05
1.43555e-05
1.43555e-05
1.43555e-05
1.43555e-05
1.43555e-05
1.43555e-05
1.43555e-05
1.43555e-05
1.43555e-05
1.43555e-05
1.43555e-05
1.43555e-05
1.43555e-05
1.43311e-05
1.43555e-05
1.43555e-05
1.43311e-05
1.43311e-05
1.43311e-05
1.43311e-05
1.43311e-05
1.43311e-05
1.43311e-05
1.43311e-05
1.43311e-05
1.43311e-05
1.43311e-05
1.43311e-05
1.43311e-05
1.43311e-05
1.43311e-05
1.43066e-05
1.43066e-05
1.43066e-05
1.43066e-05
1.43311e-05
1.43311e-05
1.43311e-05
1.43066e-05
1.43311e-05
1.43066e-05
1.43066e-05
1.43066e-05
1.43066e-05
1.43066e-05
1.43066e-05
1.43066e-05
1.43066e-05
1.43066e-05
1.42822e-05
1.42822e-05
1.43066e-05
1.43066e-05
1.43066e-05
1.42822e-05
1.42822e-05
1.43066e-05
1.43066e-05
1.42822e-05
1.43066e-05
1.43066e-05
1.43066e-05
1.43066e-05
1.43066e-05
1.43066e-05
1.42822e-05
1.42822e-05
1.43066e-05
1.43066e-05
1.43066e-05
1.43066e-05
1.43066e-05
1.42822e-05
1.43066e-05
1.43066e-05
1.43066e-05
1.43066e-05
1.43066e-05
1.43066e-05
1.43066e-05
1.43066e-05
1.43066e-05
1.43066e-05
1.43311e-05
1.43066e-05
1.43066e-05
1.43066e-05
1.43066e-05
1.43311e-05
1.43311e-05
1.43311e-05
1.43311e-05
1.43311e-05
1.43311e-05
1.43311e-05
1.43311e-05
1.43311e-05
1.43555e-05
1.43311e-05
1.43555e-05
1.43555e-05
1.43555e-05
1.43555e-05
1.43555e-05
1.43555e-05
1.43555e-05
1.43555e-05
1.43555e-05
1.43555e-05
1.43555e-05
1.43555e-05
1.43555e-05
1.43799e-05
1.43799e-05
1.43555e-05
1.43799e-05
1.43799e-05
1.43799e-05
1.43799e-05
1.43799e-05
1.43799e-05
1.43799e-05
1.43799e-05
1.43799e-05
1.43799e-05
1.43799e-05
1.44043e-05
1.44043e-05
1.43799e-05
1.44043e-05
1.44043e-05
1.44043e-05
1.44043e-05
1.44043e-05
1.44043e-05
1.44043e-05
1.44043e-05
1.44043e-05
1.44043e-05
1.44043e-05
1.44043e-05
1.44287e-05
1.44043e-05
1.44043e-05
1.44287e-05
1.44287e-05
1.44043e-05
1.44287e-05
1.44043e-05
1.44287e-05
1.44287e-05
1.44287e-05
1.44287e-05
1.44287e-05
1.44287e-05
1.44287e-05
1.44287e-05
1.44287e-05
1.44287e-05
1.44287e-05
1.44287e-05
1.44287e-05
1.44287e-05
1.44287e-05
1.44287e-05
1.44287e-05
1.44287e-05
1.44287e-05
1.44287e-05
1.44287e-05
1.44287e-05
1.44287e-05
1.44287e-05
1.44287e-05
1.44287e-05
1.44287e-05
1.44287e-05
1.44287e-05
1.44287e-05
1.44287e-05
1.44287e-05
1.44287e-05
1.44287e-05
1.44287e-05
1.44287e-05
1.44287e-05
1.44287e-05
1.44287e-05
1.44287e-05
1.44287e-05
1.44287e-05
1.44287e-05
1.44287e-05
1.44287e-05
1.44287e-05
1.44287e-05
1.44287e-05
1.44287e-05
1.44287e-05
1.44287e-05
1.44287e-05
1.44287e-05
1.44287e-05
1.44287e-05
1.44287e-05
1.44287e-05
1.44287e-05
1.44043e-05
1.44287e-05
1.44043e-05
1.44043e-05
1.44043e-05
1.44287e-05
1.44043e-05
1.44043e-05
1.44043e-05
1.44043e-05
1.44043e-05
1.44043e-05
1.44043e-05
1.44043e-05
1.44043e-05
1.44043e-05
1.44043e-05
1.44043e-05
1.44043e-05
1.44043e-05
1.44043e-05
1.44043e-05
1.44043e-05
1.44043e-05
1.44043e-05
1.44043e-05
1.43799e-05
1.44043e-05
1.44043e-05
1.43799e-05
1.43799e-05
1.43799e-05
1.43799e-05
1.43799e-05
1.43799e-05
1.43799e-05
1.43799e-05
1.43799e-05
1.43799e-05
1.43799e-05
1.43799e-05
1.43799e-05
1.43799e-05
1.43555e-05
1.43555e-05
1.43555e-05
1.43555e-05
1.43799e-05
1.43799e-05
1.43555e-05
1.43555e-05
1.43555e-05
1.43555e-05
1.43555e-05
1.43555e-05
1.43555e-05
1.43555e-05
1.43555e-05
1.43555e-05
1.43555e-05
1.43555e-05
1.43311e-05
1.43311e-05
1.43311e-05
1.43311e-05
1.43311e-05
1.43311e-05
1.43555e-05
1.43311e-05
1.43311e-05
1.43311e-05
1.43311e-05
1.43311e-05
1.43311e-05
1.43311e-05
1.43311e-05
1.43311e-05
1.43066e-05
1.43311e-05
1.43066e-05
1.43066e-05
1.43066e-05
1.43066e-05
1.43066e-05
1.42822e-05
1.43066e-05
1.42822e-05
1.43066e-05
1.43066e-05
1.42822e-05
1.42822e-05
1.42822e-05
1.42822e-05
1.42822e-05
1.42822e-05
1.42822e-05
1.42822e-05
1.42822e-05
1.42822e-05
1.42822e-05
1.42822e-05
1.42578e-05
1.42578e-05
1.42822e-05
1.42822e-05
1.42578e-05
1.42578e-05
1.42578e-05
1.42578e-05
1.42578e-05
1.42578e-05
1.42578e-05
1.42822e-05
1.42578e-05
1.42578e-05
1.42578e-05
1.42578e-05
1.42578e-05
1.42578e-05
1.42578e-05
1.42578e-05
1.42578e-05
1.42578e-05
1.42578e-05
1.42578e-05
1.42578e-05
1.42578e-05
1.42578e-05
1.42578e-05
1.42578e-05
1.42578e-05
1.42578e-05
1.42578e-05
1.42578e-05
1.42822e-05
1.42822e-05
1.42822e-05
1.42822e-05
1.42822e-05
1.42822e-05
1.42822e-05
1.42822e-05
1.42822e-05
1.42822e-05
1.43066e-05
1.43066e-05
1.43066e-05
1.43066e-05
1.43311e-05
1.43311e-05
1.43311e-05
1.43311e-05
1.43555e-05
1.43555e-05
1.43555e-05
1.43555e-05
1.43555e-05
1.43555e-05
1.43555e-05
1.43799e-05
1.43799e-05
1.43799e-05
1.43799e-05
1.44043e-05
1.44043e-05
1.44043e-05
1.44043e-05
1.44043e-05
1.44287e-05
1.44287e-05
1.44531e-05
1.44287e-05
1.44287e-05
1.44531e-05
1.44531e-05
1.44775e-05
1.44775e-05
1.44775e-05
1.44775e-05
1.44775e-05
1.4502e-05
1.4502e-05
1.4502e-05
1.4502e-05
1.45264e-05
1.45264e-05
1.45264e-05
1.45264e-05
1.45508e-05
1.45508e-05
1.45508e-05
1.45508e-05
1.45508e-05
1.45752e-05
1.45752e-05
1.45752e-05
1.45752e-05
1.45752e-05
1.45996e-05
1.45996e-05
1.45996e-05
1.4624e-05
1.45996e-05
1.4624e-05
1.4624e-05
1.4624e-05
1.4624e-05
1.46484e-05
1.46484e-05
1.46484e-05
1.46484e-05
1.46484e-05
1.46484e-05
1.46484e-05
1.46484e-05
1.46484e-05
1.46484e-05
1.46484e-05
1.46484e-05
1.46729e-05
1.46484e-05
1.46729e-05
1.46729e-05
1.46729e-05
1.46729e-05
1.46729e-05
1.46729e-05
1.46729e-05
1.46729e-05
1.46729e-05
1.46729e-05
1.46973e-05
1.46973e-05
1.46973e-05
1.46729e-05
1.46973e-05
1.46973e-05
1.46973e-05
1.46729e-05
1.46973e-05
1.46973e-05
1.46729e-05
1.46729e-05
1.46973e-05
1.46973e-05
1.46729e-05
1.46729e-05
1.46729e-05
1.46729e-05
1.46973e-05
1.46973e-05
1.46973e-05
1.46973e-05
1.46729e-05
1.46729e-05
1.46729e-05
1.46729e-05
1.46729e-05
1.46729e-05
1.46729e-05
1.46729e-05
1.46729e-05
1.46729e-05
1.46484e-05
1.46729e-05
1.46729e-05
1.46484e-05
1.46484e-05
1.46484e-05
1.46484e-05
1.46484e-05
1.46484e-05
1.46484e-05
1.46484e-05
1.46484e-05
1.46484e-05
1.46484e-05
1.4624e-05
1.46484e-05
1.4624e-05
1.46484e-05
1.4624e-05
1.4624e-05
1.4624e-05
1.4624e-05
1.4624e-05
1.4624e-05
1.45996e-05
1.45996e-05
1.45996e-05
1.45996e-05
1.45996e-05
1.45996e-05
1.45996e-05
1.45752e-05
1.45752e-05
1.45752e-05
1.45508e-05
1.45508e-05
1.45264e-05
1.45264e-05
1.45264e-05
1.45264e-05
1.4502e-05
1.4502e-05
1.44775e-05
1.44775e-05
1.44775e-05
1.44775e-05
1.44531e-05
1.44531e-05
1.44531e-05
1.44531e-05
1.44287e-05
1.44287e-05
1.44287e-05
1.44287e-05
1.44287e-05
1.44287e-05
1.44287e-05
1.44287e-05
1.44287e-05
1.44287e-05
1.44043e-05
1.44043e-05
1.44043e-05
1.44043e-05
1.44043e-05
1.44043e-05
1.44043e-05
1.43799e-05
1.43799e-05
1.43799e-05
1.43799e-05
1.43799e-05
1.43555e-05
1.43555e-05
1.43555e-05
1.43555e-05
1.43555e-05
1.43555e-05
1.43555e-05
1.43555e-05
1.43555e-05
1.43555e-05
1.43311e-05
1.43311e-05
1.43066e-05
1.43311e-05
1.43311e-05
1.43066e-05
1.43066e-05
1.42822e-05
1.42822e-05
1.42822e-05
1.42822e-05
1.42822e-05
1.42822e-05
1.42822e-05
1.42822e-05
1.42822e-05
1.42822e-05
1.42822e-05
1.42578e-05
1.42578e-05
1.42578e-05
1.42578e-05
1.42334e-05
1.42578e-05
1.42334e-05
1.42334e-05
1.42334e-05
1.42334e-05
1.42334e-05
1.42334e-05
1.42334e-05
1.42334e-05
1.42334e-05
1.42334e-05
1.42334e-05
1.42334e-05
1.42334e-05
1.42334e-05
1.42334e-05
1.42334e-05
1.42334e-05
1.42334e-05
1.42334e-05
1.42334e-05
1.42334e-05
1.42334e-05
1.4209e-05
1.42334e-05
1.42334e-05
1.4209e-05
1.42334e-05
1.42334e-05
1.4209e-05
1.4209e-05
1.4209e-05
1.4209e-05
1.4209e-05
1.4209e-05
1.4209e-05
1.4209e-05
1.41846e-05
1.4209e-05
1.41846e-05
1.41846e-05
1.41846e-05
1.41602e-05
1.41846e-05
1.41846e-05
1.41602e-05
1.41602e-05
1.41602e-05
1.41602e-05
1.41602e-05
1.41602e-05
1.41602e-05
1.41602e-05
1.41602e-05
1.41602e-05
1.41357e-05
1.41602e-05
1.41602e-05
1.41357e-05
1.41357e-05
1.41602e-05
1.41357e-05
1.41357e-05
1.41357e-05
1.41357e-05
1.41357e-05
1.41357e-05
1.41357e-05
1.41357e-05
1.41357e-05
1.41357e-05
1.41357e-05
1.41357e-05
1.41357e-05
1.41357e-05
1.41602e-05
1.41602e-05
1.41357e-05
1.41602e-05
1.41602e-05
1.41602e-05
1.41602e-05
1.41602e-05
1.41602e-05
1.41602e-05
1.41602e-05
1.41602e-05
1.41602e-05
1.41602e-05
1.41846e-05
1.41846e-05
1.41846e-05
1.41846e-05
1.41846e-05
1.41846e-05
1.4209e-05
1.4209e-05
1.4209e-05
1.4209e-05
1.4209e-05
1.4209e-05
1.42334e-05
1.42334e-05
1.42334e-05
1.42334e-05
1.42334e-05
1.42334e-05
1.42334e-05
1.42334e-05
1.42334e-05
1.42334e-05
1.42334e-05
1.42578e-05
1.42578e-05
1.42578e-05
1.42578e-05
1.42578e-05
1.42578e-05
1.42578e-05
1.42822e-05
1.42822e-05
1.42822e-05
1.42822e-05
1.42822e-05
1.42822e-05
1.42822e-05
1.42822e-05
1.42822e-05
1.43066e-05
1.43066e-05
1.43066e-05
1.43066e-05
1.43066e-05
1.43066e-05
1.43066e-05
1.43066e-05
1.43311e-05
1.43311e-05
1.43311e-05
1.43311e-05
1.43311e-05
1.43311e-05
1.43311e-05
1.43311e-05
1.43311e-05
1.43311e-05
1.43555e-05
1.43555e-05
1.43555e-05
1.43555e-05
1.43555e-05
1.43555e-05
1.43555e-05
1.43555e-05
1.43555e-05
1.43555e-05
1.43555e-05
1.43555e-05
1.43555e-05
1.43555e-05
1.43799e-05
1.43555e-05
1.43555e-05
1.43799e-05
1.43799e-05
1.43799e-05
1.43799e-05
1.43799e-05
1.43799e-05
1.43799e-05
1.43799e-05
1.43799e-05
1.44043e-05
1.44043e-05
1.44043e-05
1.44043e-05
1.44043e-05
1.44043e-05
1.44287e-05
1.44287e-05
1.44287e-05
1.44287e-05
1.44287e-05
1.44287e-05
1.44287e-05
1.44287e-05
1.44287e-05
1.44287e-05
1.44287e-05
1.44531e-05
1.44531e-05
1.44531e-05
1.44531e-05
1.44531e-05
1.44531e-05
1.44531e-05
1.44531e-05
1.44531e-05
1.44531e-05
1.44531e-05
1.44531e-05
1.44531e-05
1.44531e-05
1.44531e-05
1.44531e-05
1.44531e-05
1.44531e-05
1.44531e-05
1.44531e-05
1.44531e-05
1.44531e-05
1.44531e-05
1.44531e-05
1.44531e-05
1.44531e-05
1.44531e-05
1.44531e-05
1.44531e-05
1.44531e-05
1.44531e-05
1.44531e-05
1.44531e-05
1.44531e-05
1.44531e-05
1.44531e-05
1.44531e-05
1.44531e-05
1.44531e-05
1.44531e-05
1.44531e-05
1.44531e-05
1.44531e-05
1.44531e-05
1.44531e-05
1.44531e-05
1.44531e-05
1.44531e-05
1.44531e-05
1.44531e-05
1.44531e-05
1.44531e-05
1.44531e-05
1.44287e-05
1.44531e-05
1.44287e-05
1.44287e-05
1.44531e-05
1.44531e-05
1.44531e-05
1.44287e-05
1.44287e-05
1.44287e-05
1.44287e-05
1.44287e-05
1.44287e-05
1.44287e-05
1.44287e-05
1.44287e-05
1.44287e-05
1.44287e-05
1.44287e-05
1.44287e-05
1.44287e-05
1.44287e-05
1.44287e-05
1.44287e-05
1.44287e-05
1.44287e-05
1.44287e-05
1.44287e-05
1.44287e-05
1.44287e-05
1.44287e-05
1.44287e-05
1.44287e-05
1.44287e-05
1.44287e-05
1.44287e-05
1.44287e-05
1.44287e-05
1.44287e-05
1.44287e-05
1.44287e-05
1.44287e-05
1.44287e-05
1.44287e-05
1.44043e-05
1.44287e-05
1.44043e-05
1.44043e-05
1.44287e-05
1.44287e-05
1.44287e-05
1.44043e-05
1.44287e-05
1.44287e-05
1.44287e-05
1.44043e-05
1.44043e-05
1.44043e-05
1.44043e-05
1.44043e-05
1.44043e-05
1.44043e-05
1.44287e-05
1.44043e-05
1.44043e-05
1.44043e-05
1.44043e-05
1.44043e-05
1.44043e-05
1.44043e-05
1.44043e-05
1.44043e-05
1.44043e-05
1.44043e-05
1.44043e-05
1.44043e-05
1.44043e-05
1.44043e-05
1.44043e-05
1.43799e-05
1.44043e-05
1.43799e-05
1.44043e-05
1.44043e-05
1.43799e-05
1.43799e-05
1.43799e-05
1.43799e-05
1.43799e-05
1.43799e-05
1.43799e-05
1.43799e-05
1.43799e-05
1.43799e-05
1.43799e-05
1.43799e-05
1.43799e-05
1.43799e-05
1.43799e-05
1.43555e-05
1.43555e-05
1.43555e-05
1.43555e-05
1.43799e-05
1.43555e-05
1.43555e-05
1.43555e-05
1.43555e-05
1.43555e-05
1.43555e-05
1.43555e-05
1.43555e-05
1.43555e-05
1.43555e-05
1.43555e-05
1.43555e-05
1.43311e-05
1.43555e-05
1.43311e-05
1.43311e-05
1.43311e-05
1.43311e-05
1.43311e-05
1.43311e-05
1.43066e-05
1.43066e-05
1.43066e-05
1.43066e-05
1.43066e-05
1.42822e-05
1.42822e-05
1.42822e-05
1.42822e-05
1.42822e-05
1.42822e-05
1.42822e-05
1.42822e-05
1.42822e-05
1.42822e-05
1.42578e-05
1.42578e-05
1.42578e-05
1.42578e-05
1.42578e-05
1.42578e-05
1.42578e-05
1.42334e-05
1.42334e-05
1.42334e-05
1.42334e-05
1.42334e-05
1.42334e-05
1.42334e-05
1.42334e-05
1.42334e-05
1.42334e-05
1.42334e-05
1.42334e-05
1.42334e-05
1.42334e-05
1.42334e-05
1.42334e-05
1.4209e-05
1.42334e-05
1.4209e-05
1.4209e-05
1.4209e-05
1.4209e-05
1.4209e-05
1.4209e-05
1.4209e-05
1.4209e-05
1.4209e-05
1.4209e-05
1.4209e-05
1.41846e-05
1.41846e-05
1.4209e-05
1.4209e-05
1.41846e-05
1.41846e-05
1.41846e-05
1.41846e-05
1.41846e-05
1.41846e-05
1.41846e-05
1.41846e-05
1.41846e-05
1.41846e-05
1.41846e-05
1.41846e-05
1.41846e-05
1.41846e-05
1.41846e-05
1.41602e-05
1.41602e-05
1.41602e-05
1.41602e-05
1.41602e-05
1.41602e-05
1.41602e-05
1.41846e-05
1.41602e-05
1.41602e-05
1.41602e-05
1.41602e-05
1.41602e-05
1.41602e-05
1.41602e-05
1.41602e-05
1.41846e-05
1.41602e-05
1.41846e-05
1.41602e-05
1.41602e-05
1.41602e-05
1.41602e-05
1.41602e-05
1.41602e-05
1.41602e-05
1.41602e-05
1.41602e-05
1.41602e-05
1.41602e-05
1.41602e-05
1.41602e-05
1.41602e-05
1.41602e-05
1.41602e-05
1.41602e-05
1.41602e-05
1.41602e-05
1.41602e-05
1.41602e-05
1.41602e-05
1.41602e-05
1.41602e-05
1.41602e-05
1.41602e-05
1.41846e-05
1.41602e-05
1.41602e-05
1.41846e-05
1.41846e-05
1.41846e-05
1.41846e-05
1.41846e-05
1.41846e-05
1.41846e-05
1.41846e-05
1.41846e-05
1.41846e-05
1.4209e-05
1.41846e-05
1.4209e-05
1.41846e-05
1.41846e-05
1.41846e-05
1.4209e-05
1.41846e-05
1.41846e-05
1.41846e-05
1.4209e-05
1.4209e-05
1.4209e-05
1.4209e-05
1.4209e-05
1.42334e-05
1.4209e-05
1.4209e-05
1.42334e-05
1.4209e-05
1.4209e-05
1.4209e-05
1.42334e-05
1.42334e-05
1.42334e-05
1.42334e-05
1.42334e-05
1.42334e-05
1.42334e-05
1.42334e-05
1.42334e-05
1.42334e-05
1.42334e-05
1.42334e-05
1.42334e-05
1.42334e-05
1.42334e-05
1.42334e-05
1.42578e-05
1.42334e-05
1.42334e-05
1.42334e-05
1.42334e-05
1.42578e-05
1.42334e-05
1.42578e-05
1.42578e-05
1.42578e-05
1.42578e-05
1.42578e-05
1.42578e-05
1.42578e-05
1.42578e-05
1.42822e-05
1.42578e-05
1.42578e-05
1.42578e-05
1.42822e-05
1.42578e-05
1.42822e-05
1.42822e-05
1.42822e-05
1.42822e-05
1.42822e-05
1.42822e-05
1.42822e-05
1.42822e-05
1.42822e-05
1.42822e-05
1.42822e-05
1.42822e-05
1.42822e-05
1.42822e-05
1.42822e-05
1.43066e-05
1.42822e-05
1.42822e-05
1.42822e-05
1.42822e-05
1.42822e-05
1.42822e-05
1.43066e-05
1.43066e-05
1.42822e-05
1.42822e-05
1.42822e-05
1.42822e-05
1.43066e-05
1.43066e-05
1.43066e-05
1.43066e-05
1.43066e-05
1.43066e-05
1.43066e-05
1.43066e-05
1.43066e-05
1.43066e-05
1.43066e-05
1.43066e-05
1.43066e-05
1.43066e-05
1.43066e-05
1.43066e-05
1.43066e-05
1.43311e-05
1.43066e-05
1.43311e-05
1.43066e-05
1.43066e-05
1.43066e-05
1.43311e-05
1.43066e-05
1.43066e-05
1.43066e-05
1.43311e-05
1.43311e-05
1.43311e-05
1.43311e-05
1.43311e-05
1.43311e-05
1.43066e-05
1.43311e-05
1.43311e-05
1.43311e-05
1.43311e-05
1.43311e-05
1.43311e-05
1.43311e-05
1.43311e-05
1.43311e-05
1.43311e-05
1.43311e-05
1.43311e-05
1.43311e-05
1.43311e-05
1.43311e-05
1.43311e-05
1.43311e-05
1.43311e-05
1.43311e-05
1.43311e-05
1.43311e-05
1.43311e-05
1.43311e-05
1.43311e-05
1.43311e-05
1.43311e-05
1.43311e-05
1.43311e-05
1.43311e-05
1.43555e-05
1.43311e-05
1.43311e-05
1.43555e-05
1.43555e-05
1.43555e-05
1.43311e-05
1.43555e-05
1.43555e-05
1.43555e-05
1.43555e-05
1.43555e-05
1.43555e-05
1.43311e-05
1.43555e-05
1.43555e-05
1.43555e-05
1.43555e-05
1.43555e-05
1.43555e-05
1.43555e-05
1.43555e-05
1.43555e-05
1.43555e-05
1.43555e-05
1.43555e-05
1.43311e-05
1.43555e-05
1.43555e-05
1.43555e-05
1.43311e-05
1.43311e-05
1.43555e-05
1.43311e-05
1.43555e-05
1.43311e-05
1.43311e-05
1.43311e-05
1.43311e-05
1.43311e-05
1.43555e-05
1.43311e-05
1.43311e-05
1.43311e-05
1.43311e-05
1.43311e-05
1.43311e-05
1.43311e-05
1.43311e-05
1.43311e-05
1.43311e-05
1.43311e-05
1.43311e-05
1.43311e-05
1.43311e-05
1.43311e-05
1.43311e-05
1.43311e-05
1.43311e-05
1.43311e-05
1.43066e-05
1.43066e-05
1.43066e-05
1.43311e-05
1.43311e-05
1.43311e-05
1.43066e-05
1.43066e-05
1.43311e-05
1.43066e-05
1.43066e-05
1.43066e-05
1.43066e-05
1.43066e-05
1.43066e-05
1.43066e-05
1.43066e-05
1.43066e-05
1.42822e-05
1.43066e-05
1.43066e-05
1.43066e-05
1.42822e-05
1.43066e-05
1.43066e-05
1.43066e-05
1.42822e-05
1.42822e-05
1.42822e-05
1.42822e-05
1.42822e-05
1.42822e-05
1.42822e-05
1.42822e-05
1.42822e-05
1.42822e-05
1.42822e-05
1.42822e-05
1.42578e-05
1.42822e-05
1.42822e-05
1.42578e-05
1.42578e-05
1.42578e-05
1.42578e-05
1.42578e-05
1.42578e-05
1.42578e-05
1.42578e-05
1.42578e-05
1.42578e-05
1.42578e-05
1.42578e-05
1.42578e-05
1.42578e-05
1.42334e-05
1.42334e-05
1.42334e-05
1.42334e-05
1.42334e-05
1.42334e-05
1.42334e-05
1.42334e-05
1.42334e-05
1.42334e-05
1.42334e-05
1.42334e-05
1.42334e-05
1.42334e-05
1.4209e-05
1.42334e-05
1.42334e-05
1.4209e-05
1.4209e-05
1.4209e-05
1.4209e-05
1.4209e-05
1.42334e-05
1.4209e-05
1.4209e-05
1.4209e-05
1.4209e-05
1.4209e-05
1.4209e-05
1.41846e-05
1.4209e-05
1.41846e-05
1.41846e-05
1.41846e-05
1.4209e-05
1.41846e-05
1.41846e-05
1.41846e-05
1.41846e-05
1.41602e-05
1.41846e-05
1.41846e-05
1.41846e-05
1.41846e-05
1.41602e-05
1.41846e-05
1.41602e-05
1.41602e-05
1.41602e-05
1.41846e-05
1.41846e-05
1.41602e-05
1.41602e-05
1.41602e-05
1.41602e-05
1.41602e-05
1.41602e-05
1.41602e-05
1.41602e-05
1.41602e-05
1.41357e-05
1.41602e-05
1.41602e-05
1.41357e-05
1.41357e-05
1.41602e-05
1.41357e-05
1.41357e-05
1.41357e-05
1.41357e-05
1.41357e-05
1.41357e-05
1.41357e-05
1.41357e-05
1.41357e-05
1.41357e-05
1.41357e-05
1.41357e-05
1.41357e-05
1.41357e-05
1.41357e-05
1.41357e-05
1.41357e-05
1.41357e-05
1.41357e-05
1.41357e-05
1.41357e-05
1.41357e-05
1.41357e-05
1.41113e-05
1.41113e-05
1.41113e-05
1.41113e-05
1.41113e-05
1.41113e-05
1.41113e-05
1.41113e-05
1.41113e-05
1.41113e-05
1.41113e-05
1.41113e-05
1.41113e-05
1.41113e-05
1.40869e-05
1.40869e-05
1.40869e-05
1.41113e-05
1.40869e-05
1.40869e-05
1.40869e-05
1.40869e-05
1.40869e-05
1.40869e-05
1.40869e-05
1.40869e-05
1.40869e-05
1.40869e-05
1.40869e-05
1.40869e-05
1.40869e-05
1.40869e-05
1.40869e-05
1.40869e-05
1.40869e-05
1.40869e-05
1.40869e-05
1.40869e-05
1.40625e-05
1.40625e-05
1.40625e-05
1.40625e-05
1.40625e-05
1.40625e-05
1.40625e-05
1.40625e-05
1.40625e-05
1.40625e-05
1.40625e-05
1.40625e-05
1.40625e-05
1.40625e-05
1.40625e-05
1.40625e-05
1.40381e-05
1.40381e-05
1.40625e-05
1.40381e-05
1.40381e-05
1.40381e-05
1.40381e-05
1.40381e-05
1.40381e-05
1.40381e-05
1.40381e-05
1.40381e-05
1.40381e-05
1.40381e-05
1.40381e-05
1.40381e-05
1.40381e-05
1.40137e-05
1.40381e-05
1.40137e-05
1.40137e-05
1.40381e-05
1.40381e-05
1.40137e-05
1.40137e-05
1.40137e-05
1.40137e-05
1.40137e-05
1.40137e-05
1.39893e-05
1.40137e-05
1.40137e-05
1.40137e-05
1.39893e-05
1.39893e-05
1.39893e-05
1.39893e-05
1.40137e-05
1.40137e-05
1.39893e-05
1.39893e-05
1.39893e-05
1.39893e-05
1.39893e-05
1.39648e-05
1.39893e-05
1.39893e-05
1.39893e-05
1.39648e-05
1.39648e-05
1.39648e-05
1.39648e-05
1.39648e-05
1.39648e-05
1.39648e-05
1.39648e-05
1.39648e-05
1.39648e-05
1.39648e-05
1.39648e-05
1.39648e-05
1.39648e-05
1.39648e-05
1.39648e-05
1.39648e-05
1.39648e-05
1.39648e-05
1.39648e-05
1.39648e-05
1.39648e-05
1.39648e-05
1.39404e-05
1.39404e-05
1.39648e-05
1.39404e-05
1.39404e-05
1.39404e-05
1.39404e-05
1.39404e-05
1.39404e-05
1.39404e-05
1.39404e-05
1.39404e-05
1.39404e-05
1.39404e-05
1.39404e-05
1.39404e-05
1.39404e-05
1.39404e-05
1.39404e-05
1.39404e-05
1.39404e-05
1.3916e-05
1.39404e-05
1.39404e-05
1.3916e-05
1.3916e-05
1.3916e-05
1.3916e-05
1.3916e-05
1.3916e-05
1.3916e-05
1.3916e-05
1.3916e-05
1.3916e-05
1.38916e-05
1.3916e-05
1.3916e-05
1.38916e-05
1.38916e-05
1.38916e-05
1.38916e-05
1.38916e-05
1.38916e-05
1.38916e-05
1.38916e-05
1.38916e-05
1.38916e-05
1.38916e-05
1.38916e-05
1.38916e-05
1.38672e-05
1.38672e-05
1.38672e-05
1.38672e-05
1.38672e-05
1.38672e-05
1.38672e-05
1.38672e-05
1.38672e-05
1.38672e-05
1.38672e-05
1.38672e-05
1.38672e-05
1.38428e-05
1.38428e-05
1.38428e-05
1.38428e-05
1.38428e-05
1.38428e-05
1.38428e-05
1.38428e-05
1.38428e-05
1.38428e-05
1.38428e-05
1.38428e-05
1.38428e-05
1.38428e-05
1.38184e-05
1.38184e-05
1.38184e-05
1.38184e-05
1.38184e-05
1.38184e-05
1.38184e-05
1.38184e-05
1.38184e-05
1.38184e-05
1.38184e-05
1.38184e-05
1.38184e-05
1.38184e-05
1.38184e-05
1.38184e-05
1.37939e-05
1.37939e-05
1.38184e-05
1.38184e-05
1.38184e-05
1.38184e-05
1.38184e-05
1.38184e-05
1.38184e-05
1.38184e-05
1.38184e-05
1.38184e-05
1.38184e-05
1.38428e-05
1.38184e-05
1.38184e-05
1.38184e-05
1.38184e-05
1.38184e-05
1.38184e-05
1.38184e-05
1.38184e-05
1.38184e-05
1.38184e-05
1.38184e-05
1.38184e-05
1.38184e-05
1.38184e-05
1.38184e-05
1.38184e-05
1.38184e-05
1.38184e-05
1.37939e-05
1.37939e-05
1.38184e-05
1.38184e-05
1.38184e-05
1.38184e-05
1.38184e-05
1.38184e-05
1.38184e-05
1.38184e-05
1.38184e-05
1.38184e-05
1.38184e-05
1.38184e-05
1.38184e-05
1.38428e-05
1.38184e-05
1.38184e-05
1.38184e-05
1.38428e-05
1.38428e-05
1.38428e-05
1.38428e-05
1.38184e-05
1.38184e-05
1.38184e-05
1.38184e-05
1.38184e-05
1.38184e-05
1.38184e-05
1.37939e-05
1.37939e-05
1.37939e-05
1.37939e-05
1.37939e-05
1.37695e-05
1.37695e-05
1.37451e-05
1.37695e-05
1.37695e-05
1.37695e-05
1.37451e-05
1.37695e-05
1.37451e-05
1.37451e-05
1.37451e-05
1.37451e-05
1.37451e-05
1.37451e-05
1.37451e-05
1.37451e-05
1.37451e-05
1.37451e-05
1.37451e-05
1.37451e-05
1.37207e-05
1.37207e-05
1.37207e-05
1.37207e-05
1.37207e-05
1.36963e-05
1.36963e-05
1.36963e-05
1.36963e-05
1.36963e-05
1.36963e-05
1.36963e-05
1.36719e-05
1.36719e-05
1.36963e-05
1.36719e-05
1.36719e-05
1.36719e-05
1.36719e-05
1.36719e-05
1.36719e-05
1.36719e-05
1.36719e-05
1.36719e-05
1.36719e-05
1.36475e-05
1.36719e-05
1.36719e-05
1.36475e-05
1.36719e-05
1.36475e-05
1.36475e-05
1.36475e-05
1.36475e-05
1.36475e-05
1.36475e-05
1.36719e-05
1.36719e-05
1.36475e-05
1.36719e-05
1.36719e-05
1.36719e-05
1.36719e-05
1.36719e-05
1.36719e-05
1.36719e-05
1.36719e-05
1.36719e-05
1.36719e-05
1.36719e-05
1.36963e-05
1.36719e-05
1.36963e-05
1.36963e-05
1.36963e-05
1.37207e-05
1.37207e-05
1.37451e-05
1.37695e-05
1.37695e-05
1.37939e-05
1.38184e-05
1.38184e-05
1.38428e-05
1.38428e-05
1.38428e-05
1.38672e-05
1.38672e-05
1.38672e-05
1.38672e-05
1.38672e-05
1.38916e-05
1.38916e-05
1.3916e-05
1.38916e-05
1.3916e-05
1.3916e-05
1.3916e-05
1.3916e-05
1.3916e-05
1.3916e-05
1.3916e-05
1.3916e-05
1.3916e-05
1.39404e-05
1.3916e-05
1.3916e-05
1.39404e-05
1.3916e-05
1.3916e-05
1.3916e-05
1.3916e-05
1.3916e-05
1.38916e-05
1.38916e-05
1.38916e-05
1.38916e-05
1.38916e-05
1.38916e-05
1.38916e-05
1.38916e-05
1.38916e-05
1.38672e-05
1.38672e-05
1.38672e-05
1.38672e-05
1.38672e-05
1.38672e-05
1.38672e-05
1.38672e-05
1.38672e-05
1.38672e-05
1.38672e-05
1.38672e-05
1.38672e-05
1.38672e-05
1.38672e-05
1.38672e-05
1.38672e-05
1.38672e-05
1.38672e-05
1.38672e-05
1.38672e-05
1.38672e-05
1.38672e-05
1.38672e-05
1.38672e-05
1.38672e-05
1.38672e-05
1.38672e-05
1.38672e-05
1.38672e-05
1.38672e-05
1.38672e-05
1.38672e-05
1.38672e-05
1.38672e-05
1.38672e-05
1.38672e-05
1.38672e-05
1.38672e-05
1.38672e-05
1.38672e-05
1.38672e-05
1.38672e-05
1.38672e-05
1.38672e-05
1.38672e-05
1.38672e-05
1.38672e-05
1.38672e-05
1.38916e-05
1.38916e-05
1.38916e-05
1.38916e-05
1.38916e-05
1.38916e-05
1.38916e-05
1.3916e-05
1.3916e-05
1.3916e-05
1.39404e-05
1.39404e-05
1.39404e-05
1.39648e-05
1.39648e-05
1.39648e-05
1.39893e-05
1.39893e-05
1.40137e-05
1.40137e-05
1.40381e-05
1.40381e-05
1.40381e-05
1.40625e-05
1.40625e-05
1.40869e-05
1.40869e-05
1.40869e-05
1.41113e-05
1.41113e-05
1.41113e-05
1.41357e-05
1.41357e-05
1.41602e-05
1.41602e-05
1.41602e-05
1.41846e-05
1.41846e-05
1.4209e-05
1.4209e-05
1.42334e-05
1.42334e-05
1.42334e-05
1.42578e-05
1.42578e-05
1.42822e-05
1.42822e-05
1.42822e-05
1.42822e-05
1.42822e-05
1.42822e-05
1.42578e-05
1.42334e-05
1.42334e-05
1.4209e-05
1.4209e-05
1.4209e-05
1.41846e-05
1.41602e-05
1.41602e-05
1.41602e-05
1.41602e-05
1.41602e-05
1.41846e-05
1.41846e-05
1.4209e-05
1.42334e-05
1.42334e-05
1.42578e-05
1.42822e-05
1.43066e-05
1.43311e-05
1.43555e-05
1.43799e-05
1.44043e-05
1.44287e-05
1.44531e-05
1.44775e-05
1.44775e-05
1.45264e-05
1.45264e-05
1.45508e-05
1.45508e-05
1.45508e-05
1.45508e-05
1.45752e-05
1.45752e-05
1.45752e-05
1.45996e-05
1.45996e-05
1.45996e-05
1.4624e-05
1.4624e-05
1.4624e-05
1.46484e-05
1.46484e-05
1.46729e-05
1.46729e-05
1.46729e-05
1.47217e-05
1.47217e-05
1.47461e-05
1.47461e-05
1.47705e-05
1.47705e-05
1.47949e-05
1.47949e-05
1.48193e-05
1.48193e-05
1.48193e-05
1.48437e-05
1.48437e-05
1.48437e-05
1.48437e-05
1.48437e-05
1.48682e-05
1.48682e-05
1.48682e-05
1.48682e-05
1.48682e-05
1.48926e-05
1.48926e-05
1.48926e-05
1.4917e-05
1.4917e-05
1.4917e-05
1.4917e-05
1.4917e-05
1.4917e-05
1.4917e-05
1.49414e-05
1.49414e-05
1.49414e-05
1.49414e-05
1.49414e-05
1.49658e-05
1.49658e-05
1.49658e-05
1.49658e-05
1.49902e-05
1.49902e-05
1.49902e-05
1.49902e-05
1.49902e-05
1.49902e-05
1.49902e-05
1.49902e-05
1.49902e-05
1.49902e-05
1.49902e-05
1.49902e-05
1.49902e-05
1.49902e-05
1.49658e-05
1.49658e-05
1.49658e-05
1.49658e-05
1.49658e-05
1.49414e-05
1.49658e-05
1.49658e-05
1.49902e-05
1.49658e-05
1.49902e-05
1.49902e-05
1.49658e-05
1.49658e-05
1.49902e-05
1.49902e-05
1.49658e-05
1.49658e-05
1.49902e-05
1.49902e-05
1.49658e-05
1.49658e-05
1.49902e-05
1.49902e-05
1.49902e-05
1.49658e-05
1.49902e-05
1.49902e-05
1.49902e-05
1.49658e-05
1.49902e-05
1.49902e-05
1.49902e-05
1.49658e-05
1.49902e-05
1.49902e-05
1.49902e-05
1.49658e-05
1.49902e-05
1.49902e-05
1.49902e-05
1.49902e-05
1.49658e-05
1.49902e-05
1.49902e-05
1.49902e-05
1.49902e-05
1.49902e-05
1.49902e-05
1.50146e-05
1.49902e-05
1.50146e-05
1.49902e-05
1.49902e-05
1.49902e-05
1.49902e-05
1.49902e-05
1.49902e-05
1.49902e-05
1.49902e-05
1.49902e-05
1.49902e-05
1.49902e-05
1.49902e-05
1.49902e-05
1.49902e-05
1.49902e-05
1.49902e-05
1.49658e-05
1.49658e-05
1.49658e-05
1.49658e-05
1.49658e-05
1.49658e-05
1.49658e-05
1.49414e-05
1.49658e-05
1.49658e-05
1.49658e-05
1.49658e-05
1.49414e-05
1.49658e-05
1.49414e-05
1.49414e-05
1.49658e-05
1.49658e-05
1.49658e-05
1.49658e-05
1.49658e-05
1.49414e-05
1.49658e-05
1.49658e-05
1.49414e-05
1.49414e-05
1.49414e-05
1.49414e-05
1.49414e-05
1.49414e-05
1.49414e-05
1.49414e-05
1.49414e-05
1.4917e-05
1.4917e-05
1.4917e-05
1.4917e-05
1.4917e-05
1.4917e-05
1.4917e-05
1.48926e-05
1.48926e-05
1.48926e-05
1.48926e-05
1.48926e-05
1.48926e-05
1.48926e-05
1.48926e-05
1.48682e-05
1.48682e-05
1.48682e-05
1.48682e-05
1.48682e-05
1.48682e-05
1.48682e-05
1.48682e-05
1.48682e-05
1.48682e-05
1.48682e-05
1.48682e-05
1.48682e-05
1.48682e-05
1.48682e-05
1.48682e-05
1.48437e-05
1.48437e-05
1.48437e-05
1.48437e-05
1.48437e-05
1.48437e-05
1.48437e-05
1.48437e-05
1.48193e-05
1.48193e-05
1.48193e-05
1.48193e-05
1.48193e-05
1.48193e-05
1.48193e-05
1.48193e-05
1.48193e-05
1.47949e-05
1.47949e-05
1.47949e-05
1.47949e-05
1.47949e-05
1.47949e-05
1.47949e-05
1.47949e-05
1.47705e-05
1.47705e-05
1.47705e-05
1.47705e-05
1.47461e-05
1.47461e-05
1.47461e-05
1.47705e-05
1.47461e-05
1.47461e-05
1.47461e-05
1.47461e-05
1.47217e-05
1.47217e-05
1.47217e-05
1.47217e-05
1.47217e-05
1.47217e-05
1.47217e-05
1.47217e-05
1.46973e-05
1.46973e-05
1.47217e-05
1.46973e-05
1.46729e-05
1.46973e-05
1.46973e-05
1.46729e-05
1.46729e-05
1.46729e-05
1.46729e-05
1.46729e-05
1.46729e-05
1.46484e-05
1.46484e-05
1.46484e-05
1.46484e-05
1.46484e-05
1.46484e-05
1.46484e-05
1.4624e-05
1.46484e-05
1.46484e-05
1.4624e-05
1.4624e-05
1.4624e-05
1.4624e-05
1.45996e-05
1.45996e-05
1.45996e-05
1.45996e-05
1.45996e-05
1.45996e-05
1.45996e-05
1.45996e-05
1.45996e-05
1.45752e-05
1.45752e-05
1.45752e-05
1.45752e-05
1.45752e-05
1.45508e-05
1.45508e-05
1.45752e-05
1.45508e-05
1.45508e-05
1.45508e-05
1.45508e-05
1.45264e-05
1.45264e-05
1.45264e-05
1.45264e-05
1.4502e-05
1.45264e-05
1.45264e-05
1.45264e-05
1.45264e-05
1.45264e-05
1.4502e-05
1.4502e-05
1.4502e-05
1.4502e-05
1.4502e-05
1.4502e-05
1.4502e-05
1.44775e-05
1.44775e-05
1.44775e-05
1.44775e-05
1.44775e-05
1.44775e-05
1.44775e-05
1.44775e-05
1.44531e-05
1.44531e-05
1.44531e-05
1.44531e-05
1.44531e-05
1.44531e-05
1.44531e-05
1.44287e-05
1.44287e-05
1.44287e-05
1.44287e-05
1.44287e-05
1.44287e-05
1.44287e-05
1.44043e-05
1.44287e-05
1.44043e-05
1.44043e-05
1.44043e-05
1.44043e-05
1.44043e-05
1.44043e-05
1.44043e-05
1.43799e-05
1.43799e-05
1.44043e-05
1.43799e-05
1.43799e-05
1.43799e-05
1.43799e-05
1.43555e-05
1.43799e-05
1.43555e-05
1.43799e-05
1.43555e-05
1.43555e-05
1.43555e-05
1.43555e-05
1.43555e-05
1.43555e-05
1.43555e-05
1.43555e-05
1.43311e-05
1.43311e-05
1.43555e-05
1.43555e-05
1.43311e-05
1.43311e-05
1.43311e-05
1.43311e-05
1.43311e-05
1.43311e-05
1.43311e-05
1.43311e-05
1.43066e-05
1.43066e-05
1.43066e-05
1.43066e-05
1.43066e-05
1.43066e-05
1.43066e-05
1.43066e-05
1.42822e-05
1.42822e-05
1.42822e-05
1.42822e-05
1.42822e-05
1.42822e-05
1.42822e-05
1.42578e-05
1.42822e-05
1.42578e-05
1.42578e-05
1.42578e-05
1.42334e-05
1.42578e-05
1.42334e-05
1.42578e-05
1.42578e-05
1.42334e-05
1.42334e-05
1.42334e-05
1.42334e-05
1.42334e-05
1.42334e-05
1.42334e-05
1.42334e-05
1.42334e-05
1.42334e-05
1.4209e-05
1.4209e-05
1.42334e-05
1.4209e-05
1.4209e-05
1.4209e-05
1.4209e-05
1.4209e-05
1.4209e-05
1.4209e-05
1.41846e-05
1.41846e-05
1.41846e-05
1.41846e-05
1.41846e-05
1.41846e-05
1.41602e-05
1.41602e-05
1.41602e-05
1.41602e-05
1.41602e-05
1.41602e-05
1.41602e-05
1.41602e-05
1.41602e-05
1.41357e-05
1.41357e-05
1.41357e-05
1.41357e-05
1.41357e-05
1.41357e-05
1.41357e-05
1.41357e-05
1.41357e-05
1.41357e-05
1.41357e-05
1.41113e-05
1.41357e-05
1.41113e-05
1.41113e-05
1.41113e-05
1.41113e-05
1.40869e-05
1.41113e-05
1.40869e-05
1.40869e-05
1.40869e-05
1.40869e-05
1.40869e-05
1.40869e-05
1.40625e-05
1.40869e-05
1.40869e-05
1.40625e-05
1.40625e-05
1.40625e-05
1.40625e-05
1.40625e-05
1.40625e-05
1.40625e-05
1.40625e-05
1.40625e-05
1.40381e-05
1.40381e-05
1.40381e-05
1.40381e-05
1.40381e-05
1.40381e-05
1.40381e-05
1.40381e-05
1.40381e-05
1.40137e-05
1.40137e-05
1.40381e-05
1.40137e-05
1.40137e-05
1.40137e-05
1.40137e-05
1.40137e-05
1.40137e-05
1.40137e-05
1.40137e-05
1.39893e-05
1.39893e-05
1.40137e-05
1.39893e-05
1.39893e-05
1.39893e-05
1.39893e-05
1.39893e-05
1.39893e-05
1.39893e-05
1.39648e-05
1.39648e-05
1.39648e-05
1.39648e-05
1.39648e-05
1.39648e-05
1.39648e-05
1.39648e-05
1.39648e-05
1.39648e-05
1.39648e-05
1.39404e-05
1.39404e-05
1.39404e-05
1.39648e-05
1.39404e-05
1.39404e-05
1.39404e-05
1.39404e-05
1.39404e-05
1.39404e-05
1.39404e-05
1.39404e-05
1.39404e-05
1.39404e-05
1.3916e-05
1.39404e-05
1.3916e-05
1.3916e-05
1.3916e-05
1.3916e-05
1.38916e-05
1.3916e-05
1.38916e-05
1.38916e-05
1.38916e-05
1.3916e-05
1.38916e-05
1.38916e-05
1.38916e-05
1.38916e-05
1.38916e-05
1.38916e-05
1.38916e-05
1.38916e-05
1.38916e-05
1.38672e-05
1.38916e-05
1.38672e-05
1.38672e-05
1.38672e-05
1.38672e-05
1.38672e-05
1.38672e-05
1.38672e-05
1.38672e-05
1.38672e-05
1.38672e-05
1.38672e-05
1.38672e-05
1.38428e-05
1.38428e-05
1.38428e-05
1.38428e-05
1.38428e-05
1.38428e-05
1.38428e-05
1.38428e-05
1.38428e-05
1.38428e-05
1.38428e-05
1.38428e-05
1.38428e-05
1.38184e-05
1.38184e-05
1.38184e-05
1.38184e-05
1.38184e-05
1.38184e-05
1.38184e-05
1.38184e-05
1.37939e-05
1.38184e-05
1.38184e-05
1.38184e-05
1.37939e-05
1.37939e-05
1.37939e-05
1.37695e-05
1.37939e-05
1.37939e-05
1.37695e-05
1.37695e-05
1.37695e-05
1.37695e-05
1.37695e-05
1.37695e-05
1.37695e-05
1.37695e-05
1.37451e-05
1.37695e-05
1.37695e-05
1.37451e-05
1.37451e-05
1.37451e-05
1.37451e-05
1.37451e-05
1.37451e-05
1.37451e-05
1.37451e-05
1.37451e-05
1.37451e-05
1.37451e-05
1.37207e-05
1.37451e-05
1.37451e-05
1.37207e-05
1.37207e-05
1.37207e-05
1.37207e-05
1.37207e-05
1.37207e-05
1.37207e-05
1.37207e-05
1.36963e-05
1.36963e-05
1.36963e-05
1.36963e-05
1.36963e-05
1.36963e-05
1.36963e-05
1.36963e-05
1.36963e-05
1.36963e-05
1.36719e-05
1.36963e-05
1.36719e-05
1.36719e-05
1.36719e-05
1.36719e-05
1.36719e-05
1.36719e-05
1.36719e-05
1.36719e-05
1.36719e-05
1.36719e-05
1.36719e-05
1.36719e-05
1.36475e-05
1.36475e-05
1.36475e-05
1.36475e-05
1.36475e-05
1.36475e-05
1.36475e-05
1.36475e-05
1.36475e-05
1.3623e-05
1.3623e-05
1.3623e-05
1.3623e-05
1.3623e-05
1.35986e-05
1.3623e-05
1.3623e-05
1.35986e-05
1.35986e-05
1.35986e-05
1.35986e-05
1.35986e-05
1.35986e-05
1.35986e-05
1.35986e-05
1.35742e-05
1.35742e-05
1.35986e-05
1.35986e-05
1.35742e-05
1.35742e-05
1.35742e-05
1.35742e-05
1.35742e-05
1.35742e-05
1.35742e-05
1.35742e-05
1.35742e-05
1.35498e-05
1.35498e-05
1.35498e-05
1.35498e-05
1.35498e-05
1.35498e-05
1.35498e-05
1.35498e-05
1.35254e-05
1.35254e-05
1.35254e-05
1.35254e-05
1.35254e-05
1.35254e-05
1.35254e-05
1.35254e-05
1.35254e-05
1.3501e-05
1.3501e-05
1.3501e-05
1.3501e-05
1.3501e-05
1.3501e-05
1.3501e-05
1.3501e-05
1.3501e-05
1.3501e-05
1.34766e-05
1.34766e-05
1.34766e-05
1.34766e-05
1.34766e-05
1.34766e-05
1.34766e-05
1.34766e-05
1.34766e-05
1.34521e-05
1.34521e-05
1.34521e-05
1.34521e-05
1.34521e-05
1.34521e-05
1.34521e-05
1.34521e-05
1.34521e-05
1.34521e-05
1.34521e-05
1.34521e-05
1.34521e-05
1.34521e-05
1.34521e-05
1.34521e-05
1.34521e-05
1.34521e-05
1.34521e-05
1.34277e-05
1.34277e-05
1.34521e-05
1.34521e-05
1.34277e-05
1.34521e-05
1.34277e-05
1.34277e-05
1.34277e-05
1.34277e-05
1.34277e-05
1.34277e-05
1.34277e-05
1.34277e-05
1.34277e-05
1.34277e-05
1.34033e-05
1.34033e-05
1.34033e-05
1.34033e-05
1.34033e-05
1.34033e-05
1.34033e-05
1.34033e-05
1.34033e-05
1.34033e-05
1.34033e-05
1.34033e-05
1.34033e-05
1.34033e-05
1.34033e-05
1.33789e-05
1.34033e-05
1.34033e-05
1.33789e-05
1.33789e-05
1.34033e-05
1.34033e-05
1.33789e-05
1.33789e-05
1.34033e-05
1.33789e-05
1.33789e-05
1.34033e-05
1.33789e-05
1.33789e-05
1.33789e-05
1.34033e-05
1.34033e-05
1.34033e-05
1.34033e-05
1.34033e-05
1.34033e-05
1.34033e-05
1.34033e-05
1.34277e-05
1.34033e-05
1.34033e-05
1.34033e-05
1.34277e-05
1.34277e-05
1.34277e-05
1.34277e-05
1.34521e-05
1.34521e-05
1.34521e-05
1.34521e-05
1.34521e-05
1.34521e-05
1.34766e-05
1.34766e-05
1.34766e-05
1.34766e-05
1.3501e-05
1.3501e-05
1.3501e-05
1.3501e-05
1.3501e-05
1.35254e-05
1.3501e-05
1.3501e-05
1.35254e-05
1.35254e-05
1.35254e-05
1.35254e-05
1.35254e-05
1.35254e-05
1.35254e-05
1.35254e-05
1.35254e-05
1.35254e-05
1.35254e-05
1.35254e-05
1.35254e-05
1.35254e-05
1.35254e-05
1.35498e-05
1.35498e-05
1.35254e-05
1.35498e-05
1.35254e-05
1.35254e-05
1.35254e-05
1.35498e-05
1.35498e-05
1.35254e-05
1.35498e-05
1.35498e-05
1.35498e-05
1.35498e-05
1.35498e-05
1.35498e-05
1.35498e-05
1.35498e-05
1.35498e-05
1.35498e-05
1.35498e-05
1.35498e-05
1.35498e-05
1.35498e-05
1.35498e-05
1.35498e-05
1.35498e-05
1.35498e-05
1.35498e-05
1.35498e-05
1.35498e-05
1.35498e-05
1.35254e-05
1.35254e-05
1.35498e-05
1.35254e-05
1.35254e-05
1.35254e-05
1.35254e-05
1.35254e-05
1.35254e-05
1.35254e-05
1.3501e-05
1.3501e-05
1.3501e-05
1.3501e-05
1.3501e-05
1.3501e-05
1.3501e-05
1.3501e-05
1.3501e-05
1.3501e-05
1.3501e-05
1.3501e-05
1.35254e-05
1.3501e-05
1.35254e-05
1.35254e-05
1.35254e-05
1.35498e-05
1.35498e-05
1.35498e-05
1.35498e-05
1.35498e-05
1.35498e-05
1.35742e-05
1.35742e-05
1.35742e-05
1.35742e-05
1.35742e-05
1.35742e-05
1.35742e-05
1.35742e-05
1.35742e-05
1.35742e-05
1.35742e-05
1.35742e-05
1.35742e-05
1.35742e-05
1.35742e-05
1.35742e-05
1.35742e-05
1.35742e-05
1.35742e-05
1.35986e-05
1.35742e-05
1.35742e-05
1.35742e-05
1.35742e-05
1.35742e-05
1.35742e-05
1.35742e-05
1.35742e-05
1.35742e-05
1.35742e-05
1.35986e-05
1.35742e-05
1.35986e-05
1.35742e-05
1.35742e-05
1.35742e-05
1.35742e-05
1.35742e-05
1.35742e-05
1.35742e-05
1.35742e-05
1.35742e-05
1.35742e-05
1.35742e-05
1.35986e-05
1.35986e-05
1.35986e-05
1.35986e-05
1.3623e-05
1.3623e-05
1.3623e-05
1.3623e-05
1.3623e-05
1.36475e-05
1.36475e-05
1.36475e-05
1.36475e-05
1.36475e-05
1.36475e-05
1.36475e-05
1.36719e-05
1.36475e-05
1.36719e-05
1.36719e-05
1.36475e-05
1.36475e-05
1.36475e-05
1.36475e-05
1.36475e-05
1.36475e-05
1.36475e-05
1.36475e-05
1.36475e-05
1.36475e-05
1.36475e-05
1.36475e-05
1.36475e-05
1.36475e-05
1.36475e-05
1.36475e-05
1.36475e-05
1.36475e-05
1.36475e-05
1.36719e-05
1.36475e-05
1.36475e-05
1.36719e-05
1.36719e-05
1.36719e-05
1.36475e-05
1.36719e-05
1.36719e-05
1.36719e-05
1.36719e-05
1.36719e-05
1.36719e-05
1.36719e-05
1.36963e-05
1.36963e-05
1.36963e-05
1.36963e-05
1.36963e-05
1.36963e-05
1.36963e-05
1.36963e-05
1.36963e-05
1.36963e-05
1.36963e-05
1.37207e-05
1.37207e-05
1.37207e-05
1.37207e-05
1.37207e-05
1.37207e-05
1.37207e-05
1.37207e-05
1.37451e-05
1.37451e-05
1.37207e-05
1.37451e-05
1.37451e-05
1.37451e-05
1.37451e-05
1.37451e-05
1.37451e-05
1.37451e-05
1.37451e-05
1.37451e-05
1.37451e-05
1.37451e-05
1.37451e-05
1.37451e-05
1.37451e-05
1.37451e-05
1.37451e-05
1.37451e-05
1.37451e-05
1.37451e-05
1.37451e-05
1.37451e-05
1.37451e-05
1.37451e-05
1.37695e-05
1.37451e-05
1.37695e-05
1.37695e-05
1.37451e-05
1.37451e-05
1.37451e-05
1.37695e-05
1.37451e-05
1.37451e-05
1.37695e-05
1.37451e-05
1.37451e-05
1.37695e-05
1.37451e-05
1.37451e-05
1.37451e-05
1.37451e-05
1.37451e-05
1.37451e-05
1.37451e-05
1.37695e-05
1.37451e-05
1.37451e-05
1.37695e-05
1.37695e-05
1.37451e-05
1.37451e-05
1.37695e-05
1.37695e-05
1.37695e-05
1.37695e-05
1.37695e-05
1.37695e-05
1.37695e-05
1.37695e-05
1.37695e-05
1.37939e-05
1.37939e-05
1.37939e-05
1.37939e-05
1.37939e-05
1.37939e-05
1.37939e-05
1.37939e-05
1.37939e-05
1.37939e-05
1.37939e-05
1.37695e-05
1.37939e-05
1.37939e-05
1.37695e-05
1.37695e-05
1.37695e-05
1.37695e-05
1.37695e-05
1.37695e-05
1.37695e-05
1.37695e-05
1.37451e-05
1.37695e-05
1.37451e-05
1.37451e-05
1.37451e-05
1.37451e-05
1.37451e-05
1.37451e-05
1.37451e-05
1.37451e-05
1.37451e-05
1.37451e-05
1.37451e-05
1.37451e-05
1.37451e-05
1.37451e-05
1.37451e-05
1.37451e-05
1.37451e-05
1.37451e-05
1.37451e-05
1.37451e-05
1.37451e-05
1.37451e-05
1.37451e-05
1.37451e-05
1.37451e-05
1.37451e-05
1.37207e-05
1.37451e-05
1.37451e-05
1.37451e-05
1.37207e-05
1.37207e-05
1.37207e-05
1.36963e-05
1.37207e-05
1.37207e-05
1.36963e-05
1.36719e-05
1.36963e-05
1.36963e-05
1.36963e-05
1.36963e-05
1.36963e-05
1.36963e-05
1.36719e-05
1.36963e-05
1.36719e-05
1.36963e-05
1.36963e-05
1.36963e-05
1.36963e-05
1.36719e-05
1.36963e-05
1.36963e-05
1.36963e-05
1.36963e-05
1.36963e-05
1.36963e-05
1.36963e-05
1.36963e-05
1.36963e-05
1.36963e-05
1.36963e-05
1.36963e-05
1.36963e-05
1.36963e-05
1.36963e-05
1.37207e-05
1.37207e-05
1.37207e-05
1.37207e-05
1.37451e-05
1.37207e-05
1.37451e-05
1.37207e-05
1.37207e-05
1.37451e-05
1.37207e-05
1.37207e-05
1.37207e-05
1.37207e-05
1.37451e-05
1.37451e-05
1.37451e-05
1.37451e-05
1.37207e-05
1.37207e-05
1.37451e-05
1.37207e-05
1.37207e-05
1.37207e-05
1.37207e-05
1.37207e-05
1.37207e-05
1.37207e-05
1.37207e-05
1.37207e-05
1.37207e-05
1.36963e-05
1.36963e-05
1.36963e-05
1.36963e-05
1.36963e-05
1.36963e-05
1.36963e-05
1.36963e-05
1.36963e-05
1.36963e-05
1.36963e-05
1.36963e-05
1.36719e-05
1.36963e-05
1.36719e-05
1.36719e-05
1.36963e-05
1.36963e-05
1.36719e-05
1.36719e-05
1.36719e-05
1.36719e-05
1.36719e-05
1.36719e-05
1.36719e-05
1.36719e-05
1.36719e-05
1.36719e-05
1.36719e-05
1.36719e-05
1.36719e-05
1.36719e-05
1.36719e-05
1.36719e-05
1.36719e-05
1.36475e-05
1.36475e-05
1.36475e-05
1.36475e-05
1.36475e-05
1.36475e-05
1.36475e-05
1.36475e-05
1.36475e-05
1.36475e-05
1.36475e-05
1.36475e-05
1.36475e-05
1.36475e-05
1.36475e-05
1.36475e-05
1.3623e-05
1.3623e-05
1.36475e-05
1.36475e-05
1.3623e-05
1.36475e-05
1.36475e-05
1.36475e-05
1.3623e-05
1.3623e-05
1.3623e-05
1.3623e-05
1.36475e-05
1.3623e-05
1.3623e-05
1.3623e-05
1.3623e-05
1.3623e-05
1.3623e-05
1.36475e-05
1.3623e-05
1.3623e-05
1.36475e-05
1.3623e-05
1.3623e-05
1.3623e-05
1.3623e-05
1.3623e-05
1.3623e-05
1.3623e-05
1.36475e-05
1.3623e-05
1.3623e-05
1.36475e-05
1.3623e-05
1.3623e-05
1.3623e-05
1.3623e-05
1.3623e-05
1.36475e-05
1.36475e-05
1.3623e-05
1.36475e-05
1.36475e-05
1.3623e-05
1.36475e-05
1.36475e-05
1.3623e-05
1.36475e-05
1.36475e-05
1.36475e-05
1.3623e-05
1.36475e-05
1.36475e-05
1.36475e-05
1.36475e-05
1.36475e-05
1.36475e-05
1.36475e-05
1.36475e-05
1.36475e-05
1.36475e-05
1.36475e-05
1.36475e-05
1.36475e-05
1.36475e-05
1.36475e-05
1.36475e-05
1.36475e-05
1.36475e-05
1.36475e-05
1.36475e-05
1.36475e-05
1.36475e-05
1.36475e-05
1.36475e-05
1.36475e-05
1.36475e-05
1.36475e-05
1.36475e-05
1.36475e-05
1.36475e-05
1.36475e-05
1.36475e-05
1.36475e-05
1.36475e-05
1.36475e-05
1.36475e-05
1.36475e-05
1.36475e-05
1.36475e-05
1.36475e-05
1.36475e-05
1.36475e-05
1.36475e-05
1.36475e-05
1.36475e-05
1.36475e-05
1.36475e-05
1.36475e-05
1.36475e-05
1.36475e-05
1.36719e-05
1.36475e-05
1.36719e-05
1.36475e-05
1.36719e-05
1.36475e-05
1.36475e-05
1.36719e-05
1.36475e-05
1.36475e-05
1.36719e-05
1.36475e-05
1.36719e-05
1.36719e-05
1.36719e-05
1.36719e-05
1.36719e-05
1.36475e-05
1.36719e-05
1.36719e-05
1.36719e-05
1.36719e-05
1.36719e-05
1.36719e-05
1.36719e-05
1.36719e-05
1.36719e-05
1.36719e-05
1.36719e-05
1.36719e-05
1.36719e-05
1.36719e-05
1.36719e-05
1.36719e-05
1.36719e-05
1.36719e-05
1.36719e-05
1.36719e-05
1.36719e-05
1.36719e-05
1.36719e-05
1.36719e-05
1.36719e-05
1.36719e-05
1.36719e-05
1.36719e-05
1.36719e-05
1.36719e-05
1.36719e-05
1.36719e-05
1.36719e-05
1.36719e-05
1.36719e-05
1.36719e-05
1.36719e-05
1.36719e-05
1.36719e-05
1.36719e-05
1.36719e-05
1.36719e-05
1.36719e-05
1.36719e-05
1.36719e-05
1.36719e-05
1.36719e-05
1.36719e-05
1.36719e-05
1.36719e-05
1.36719e-05
1.36719e-05
1.36719e-05
1.36719e-05
1.36719e-05
1.36719e-05
1.36719e-05
1.36719e-05
1.36719e-05
1.36719e-05
1.36719e-05
1.36719e-05
1.36719e-05
1.36719e-05
1.36719e-05
1.36719e-05
1.36719e-05
1.36475e-05
1.36719e-05
1.36719e-05
1.36719e-05
1.36475e-05
1.36475e-05
1.36719e-05
1.36475e-05
1.36719e-05
1.36475e-05
1.36475e-05
1.36719e-05
1.36475e-05
1.36475e-05
1.36475e-05
1.36475e-05
1.36475e-05
1.36475e-05
1.36719e-05
1.36475e-05
1.36475e-05
1.36475e-05
1.36475e-05
1.36475e-05
1.36475e-05
1.36475e-05
1.36475e-05
1.36475e-05
1.36475e-05
1.36475e-05
1.36475e-05
1.36475e-05
1.36475e-05
1.36475e-05
1.36475e-05
1.36475e-05
1.36719e-05
1.36475e-05
1.36719e-05
1.36719e-05
1.36719e-05
1.36719e-05
1.36719e-05
1.36719e-05
1.36719e-05
1.36719e-05
1.36719e-05
1.36719e-05
1.36719e-05
1.36719e-05
1.36719e-05
1.36963e-05
1.36963e-05
1.36963e-05
1.36719e-05
1.36963e-05
1.36963e-05
1.36963e-05
1.36963e-05
1.37207e-05
1.37207e-05
1.37207e-05
1.37207e-05
1.37451e-05
1.37207e-05
1.37451e-05
1.37451e-05
1.37451e-05
1.37451e-05
1.37451e-05
1.37451e-05
1.37695e-05
1.37695e-05
1.37695e-05
1.37695e-05
1.37939e-05
1.37939e-05
1.37939e-05
1.37939e-05
1.38184e-05
1.38184e-05
1.38184e-05
1.38184e-05
1.38428e-05
1.38428e-05
1.38428e-05
1.38672e-05
1.38672e-05
1.38672e-05
1.38672e-05
1.38672e-05
1.38916e-05
1.38916e-05
1.38916e-05
1.3916e-05
1.3916e-05
1.3916e-05
1.39404e-05
1.39404e-05
1.39404e-05
1.39648e-05
1.39648e-05
1.39648e-05
1.39648e-05
1.39648e-05
1.39893e-05
1.39893e-05
1.40137e-05
1.40137e-05
1.40137e-05
1.40381e-05
1.40381e-05
1.40381e-05
1.40381e-05
1.40381e-05
1.40625e-05
1.40625e-05
1.40625e-05
1.40625e-05
1.40869e-05
1.40869e-05
1.40869e-05
1.41113e-05
1.41357e-05
1.41357e-05
1.41357e-05
1.41357e-05
1.41357e-05
1.41602e-05
1.41602e-05
1.41602e-05
1.41602e-05
1.41846e-05
1.41846e-05
1.41846e-05
1.41846e-05
1.4209e-05
1.4209e-05
1.42334e-05
1.4209e-05
1.42334e-05
1.42334e-05
1.42334e-05
1.42334e-05
1.42578e-05
1.42334e-05
1.42578e-05
1.42578e-05
1.42578e-05
1.42822e-05
1.42822e-05
1.42822e-05
1.42822e-05
1.42822e-05
1.42822e-05
1.43066e-05
1.43066e-05
1.43066e-05
1.43066e-05
1.43311e-05
1.43311e-05
1.43311e-05
1.43311e-05
1.43555e-05
1.43555e-05
1.43555e-05
1.43555e-05
1.43555e-05
1.43555e-05
1.43555e-05
1.43799e-05
1.43799e-05
1.43799e-05
1.43799e-05
1.44043e-05
1.43799e-05
1.44043e-05
1.44043e-05
1.44043e-05
