5.835e-06
5.8594e-06
5.835e-06
5.8594e-06
5.835e-06
5.8594e-06
5.8105e-06
5.8594e-06
5.835e-06
5.8594e-06
5.835e-06
5.835e-06
5.835e-06
5.8594e-06
5.835e-06
5.835e-06
5.835e-06
5.835e-06
5.835e-06
5.835e-06
5.835e-06
5.835e-06
5.8105e-06
5.835e-06
5.835e-06
5.835e-06
5.8105e-06
5.8594e-06
5.8105e-06
5.835e-06
5.8105e-06
5.835e-06
5.8105e-06
5.835e-06
5.8105e-06
5.835e-06
5.8105e-06
5.835e-06
5.8105e-06
5.835e-06
5.8105e-06
5.835e-06
5.8105e-06
5.835e-06
5.8105e-06
5.835e-06
5.8105e-06
5.835e-06
5.8105e-06
5.835e-06
5.8105e-06
5.835e-06
5.8105e-06
5.835e-06
5.7861e-06
5.8105e-06
5.7861e-06
5.8105e-06
5.8105e-06
5.8105e-06
5.8105e-06
5.835e-06
5.8105e-06
5.8105e-06
5.7861e-06
5.8105e-06
5.7861e-06
5.8105e-06
5.7861e-06
5.8105e-06
5.7861e-06
5.7861e-06
5.7861e-06
5.7861e-06
5.7861e-06
5.8105e-06
5.7617e-06
5.7861e-06
5.7617e-06
5.7861e-06
5.7617e-06
5.7861e-06
5.7617e-06
5.7861e-06
5.7617e-06
5.7861e-06
5.7617e-06
5.7861e-06
5.7617e-06
5.7861e-06
5.7617e-06
5.7617e-06
5.7617e-06
5.7617e-06
5.7373e-06
5.7617e-06
5.7373e-06
5.7617e-06
5.7373e-06
5.7617e-06
5.7373e-06
5.7617e-06
5.7373e-06
5.7617e-06
5.7373e-06
5.7617e-06
5.7373e-06
5.7617e-06
5.7373e-06
5.7373e-06
5.7373e-06
5.7373e-06
5.7129e-06
5.7617e-06
5.7129e-06
5.7373e-06
5.7373e-06
5.7373e-06
5.7129e-06
5.7373e-06
5.7129e-06
5.7373e-06
5.7129e-06
5.7129e-06
5.7129e-06
5.7373e-06
5.7129e-06
5.7129e-06
5.7129e-06
5.7373e-06
5.7129e-06
5.7129e-06
5.7129e-06
5.7129e-06
5.6885e-06
5.7129e-06
5.7129e-06
5.7373e-06
5.6885e-06
5.7129e-06
5.6885e-06
5.7129e-06
5.6885e-06
5.7129e-06
5.6885e-06
5.7129e-06
5.6885e-06
5.7129e-06
5.6885e-06
5.7129e-06
5.6885e-06
5.7129e-06
5.6885e-06
5.7129e-06
5.6885e-06
5.6885e-06
5.6885e-06
5.7129e-06
5.6641e-06
5.6885e-06
5.6885e-06
5.7129e-06
5.6885e-06
5.7129e-06
5.6885e-06
5.7129e-06
5.6885e-06
5.7129e-06
5.6885e-06
5.6885e-06
5.6885e-06
5.7129e-06
5.6885e-06
5.7129e-06
5.6885e-06
5.7129e-06
5.6885e-06
5.7129e-06
5.6885e-06
5.7373e-06
5.7129e-06
5.7129e-06
5.6885e-06
5.7373e-06
5.7129e-06
5.7373e-06
5.6885e-06
5.7373e-06
5.7129e-06
5.7617e-06
5.7373e-06
5.7373e-06
5.7373e-06
5.7617e-06
5.7373e-06
5.7617e-06
5.7617e-06
5.7617e-06
5.7617e-06
5.7861e-06
5.7617e-06
5.7861e-06
5.7861e-06
5.7861e-06
5.7861e-06
5.8105e-06
5.7861e-06
5.835e-06
5.8105e-06
5.835e-06
5.8105e-06
5.8594e-06
5.835e-06
5.8594e-06
5.835e-06
5.8594e-06
5.8594e-06
5.8838e-06
5.8594e-06
5.8838e-06
5.8838e-06
5.9082e-06
5.8838e-06
5.9326e-06
5.9082e-06
5.9326e-06
5.9326e-06
5.9326e-06
5.9326e-06
5.957e-06
5.9326e-06
5.957e-06
5.957e-06
5.9814e-06
5.957e-06
6.0059e-06
5.957e-06
6.0059e-06
5.9814e-06
6.0303e-06
6.0059e-06
6.0303e-06
6.0059e-06
6.0303e-06
6.0303e-06
6.0547e-06
6.0303e-06
6.0547e-06
6.0547e-06
6.0791e-06
6.0547e-06
6.0791e-06
6.0791e-06
6.1035e-06
6.0791e-06
6.1035e-06
6.0791e-06
6.1279e-06
6.0791e-06
6.1279e-06
6.1035e-06
6.1523e-06
6.1279e-06
6.1279e-06
6.1279e-06
6.1523e-06
6.1279e-06
6.1523e-06
6.1523e-06
6.1523e-06
6.1523e-06
6.1768e-06
6.1523e-06
6.1768e-06
6.1768e-06
6.2012e-06
6.1768e-06
6.2012e-06
6.1768e-06
6.2012e-06
6.2012e-06
6.2256e-06
6.1768e-06
6.2256e-06
6.2012e-06
6.2256e-06
6.2012e-06
6.2256e-06
6.2012e-06
6.25e-06
6.2256e-06
6.2256e-06
6.2256e-06
6.25e-06
6.2256e-06
6.25e-06
6.2256e-06
6.2744e-06
6.2256e-06
6.2744e-06
6.25e-06
6.2744e-06
6.25e-06
6.2744e-06
6.25e-06
6.2988e-06
6.2744e-06
6.2988e-06
6.2744e-06
6.2744e-06
6.2744e-06
6.2988e-06
6.2744e-06
6.2988e-06
6.2744e-06
6.2988e-06
6.2744e-06
6.2988e-06
6.2744e-06
6.2988e-06
6.2744e-06
6.2988e-06
6.2988e-06
6.2988e-06
6.2988e-06
6.2988e-06
6.2744e-06
6.3232e-06
6.2988e-06
6.3232e-06
6.2988e-06
6.3232e-06
6.2988e-06
6.3232e-06
6.2988e-06
6.3232e-06
6.2988e-06
6.3232e-06
6.2988e-06
6.3232e-06
6.2988e-06
6.3232e-06
6.2988e-06
6.3232e-06
6.2988e-06
6.3232e-06
6.2988e-06
6.3232e-06
6.2988e-06
6.3232e-06
6.2988e-06
6.3232e-06
6.2988e-06
6.3232e-06
6.2988e-06
6.3232e-06
6.2988e-06
6.3232e-06
6.2988e-06
6.3232e-06
6.3232e-06
6.3232e-06
6.3232e-06
6.3232e-06
6.2988e-06
6.3232e-06
6.2988e-06
6.3232e-06
6.2988e-06
6.3232e-06
6.3232e-06
6.3232e-06
6.2988e-06
6.3232e-06
6.2988e-06
6.3232e-06
6.3232e-06
6.3232e-06
6.2988e-06
6.3232e-06
6.2988e-06
6.3232e-06
6.2988e-06
6.3232e-06
6.2988e-06
6.3232e-06
6.2988e-06
6.3232e-06
6.2988e-06
6.3232e-06
6.2988e-06
6.3232e-06
6.2988e-06
6.3232e-06
6.2744e-06
6.3232e-06
6.2988e-06
6.3232e-06
6.2988e-06
6.2988e-06
6.2744e-06
6.2988e-06
6.2744e-06
6.2988e-06
6.2744e-06
6.2988e-06
6.2744e-06
6.2988e-06
6.2744e-06
6.2988e-06
6.2744e-06
6.2988e-06
6.2744e-06
6.2744e-06
6.2744e-06
6.2744e-06
6.2744e-06
6.2744e-06
6.25e-06
6.2744e-06
6.2744e-06
6.2744e-06
6.25e-06
6.2744e-06
6.25e-06
6.2744e-06
6.25e-06
6.2744e-06
6.25e-06
6.2744e-06
6.2256e-06
6.2744e-06
6.25e-06
6.25e-06
6.2256e-06
6.25e-06
6.2256e-06
6.25e-06
6.2256e-06
6.25e-06
6.2256e-06
6.25e-06
6.2256e-06
6.25e-06
6.2256e-06
6.2256e-06
6.2256e-06
6.25e-06
6.2256e-06
6.2256e-06
6.2256e-06
6.2256e-06
6.2256e-06
6.2256e-06
6.2256e-06
6.2256e-06
6.2256e-06
6.2256e-06
6.2256e-06
6.2256e-06
6.2256e-06
6.2256e-06
6.2012e-06
6.2256e-06
6.2012e-06
6.2256e-06
6.2012e-06
6.2256e-06
6.2012e-06
6.2256e-06
6.2012e-06
6.2256e-06
6.2012e-06
6.2012e-06
6.2012e-06
6.2256e-06
6.2012e-06
6.2256e-06
6.1768e-06
6.2256e-06
6.2012e-06
6.2012e-06
6.1768e-06
6.2012e-06
6.1768e-06
6.2012e-06
6.1768e-06
6.2012e-06
6.1768e-06
6.1768e-06
6.1768e-06
6.2012e-06
6.1768e-06
6.2012e-06
6.1768e-06
6.1768e-06
6.1768e-06
6.1768e-06
6.1523e-06
6.1768e-06
6.1523e-06
6.1768e-06
6.1523e-06
6.1768e-06
6.1523e-06
6.1768e-06
6.1523e-06
6.1768e-06
6.1523e-06
6.1523e-06
6.1523e-06
6.1768e-06
6.1523e-06
6.1768e-06
6.1523e-06
6.1768e-06
6.1279e-06
6.1768e-06
6.1523e-06
6.1768e-06
6.1523e-06
6.1768e-06
6.1279e-06
6.1768e-06
6.1523e-06
6.1768e-06
6.1279e-06
6.1523e-06
6.1279e-06
6.1768e-06
6.1279e-06
6.1523e-06
6.1279e-06
6.1523e-06
6.1279e-06
6.1523e-06
6.1279e-06
6.1523e-06
6.1279e-06
6.1523e-06
6.1279e-06
6.1523e-06
6.1279e-06
6.1768e-06
6.1279e-06
6.1523e-06
6.1035e-06
6.1523e-06
6.1279e-06
6.1523e-06
6.1279e-06
6.1523e-06
6.1279e-06
6.1523e-06
6.1279e-06
6.1523e-06
6.1279e-06
6.1523e-06
6.1279e-06
6.1523e-06
6.1279e-06
6.1523e-06
6.1279e-06
6.1523e-06
6.1279e-06
6.1523e-06
6.1279e-06
6.1523e-06
6.1035e-06
6.1523e-06
6.1279e-06
6.1523e-06
6.1279e-06
6.1523e-06
6.1279e-06
6.1523e-06
6.1279e-06
6.1523e-06
6.1279e-06
6.1523e-06
6.1279e-06
6.1523e-06
6.1279e-06
6.1523e-06
6.1279e-06
6.1523e-06
6.1279e-06
6.1523e-06
6.1279e-06
6.1523e-06
6.1279e-06
6.1523e-06
6.1279e-06
6.1523e-06
6.1279e-06
6.1523e-06
6.1279e-06
6.1523e-06
6.1035e-06
6.1523e-06
6.1279e-06
6.1523e-06
6.1279e-06
6.1523e-06
6.1279e-06
6.1523e-06
6.1279e-06
6.1523e-06
6.1279e-06
6.1523e-06
6.1279e-06
6.1523e-06
6.1279e-06
6.1523e-06
6.1279e-06
6.1523e-06
6.1279e-06
6.1523e-06
6.1279e-06
6.1523e-06
6.1279e-06
6.1523e-06
6.1279e-06
6.1523e-06
6.1279e-06
6.1523e-06
6.1279e-06
6.1523e-06
6.1279e-06
6.1523e-06
6.1279e-06
6.1523e-06
6.1279e-06
6.1523e-06
6.1279e-06
6.1523e-06
6.1279e-06
6.1523e-06
6.1279e-06
6.1523e-06
6.1523e-06
6.1523e-06
6.1279e-06
6.1768e-06
6.1279e-06
6.1768e-06
6.1279e-06
6.1768e-06
6.1279e-06
6.1768e-06
6.1523e-06
6.1768e-06
6.1523e-06
6.2012e-06
6.1523e-06
6.2012e-06
6.1768e-06
6.2012e-06
6.1768e-06
6.2012e-06
6.1768e-06
6.2256e-06
6.1768e-06
6.2256e-06
6.2012e-06
6.2256e-06
6.2012e-06
6.2256e-06
6.2012e-06
6.25e-06
6.2256e-06
6.25e-06
6.2256e-06
6.25e-06
6.2256e-06
6.25e-06
6.2256e-06
6.2744e-06
6.2256e-06
6.2744e-06
6.25e-06
6.2744e-06
6.2256e-06
6.2988e-06
6.25e-06
6.2988e-06
6.2744e-06
6.2988e-06
6.2744e-06
6.2988e-06
6.2744e-06
6.3232e-06
6.2744e-06
6.3232e-06
6.2744e-06
6.3232e-06
6.2988e-06
6.3232e-06
6.2988e-06
6.3232e-06
6.3232e-06
6.3232e-06
6.2988e-06
6.3477e-06
6.3232e-06
6.3232e-06
6.3232e-06
6.3477e-06
6.3232e-06
6.3477e-06
6.3232e-06
6.3477e-06
6.3232e-06
6.3477e-06
6.3232e-06
6.3721e-06
6.3477e-06
6.3721e-06
6.3477e-06
6.3965e-06
6.3721e-06
6.3965e-06
6.3477e-06
6.3965e-06
6.3721e-06
6.3965e-06
6.3721e-06
6.3965e-06
6.3721e-06
6.4209e-06
6.3965e-06
6.4209e-06
6.3965e-06
6.4209e-06
6.3965e-06
6.4209e-06
6.3965e-06
6.4209e-06
6.3965e-06
6.4209e-06
6.4209e-06
6.4209e-06
6.4209e-06
6.4453e-06
6.4209e-06
6.4453e-06
6.4209e-06
6.4697e-06
6.4453e-06
6.4697e-06
6.4453e-06
6.4697e-06
6.4453e-06
6.4697e-06
6.4453e-06
6.4941e-06
6.4453e-06
6.4697e-06
6.4453e-06
6.4697e-06
6.4697e-06
6.4941e-06
6.4697e-06
6.5186e-06
6.4697e-06
6.5186e-06
6.4941e-06
6.5186e-06
6.5186e-06
6.543e-06
6.5186e-06
6.543e-06
6.543e-06
6.543e-06
6.543e-06
6.5674e-06
6.543e-06
6.5918e-06
6.5674e-06
6.5918e-06
6.5674e-06
6.5918e-06
6.5674e-06
6.6162e-06
6.5918e-06
6.6162e-06
6.5918e-06
6.6162e-06
6.6162e-06
6.6406e-06
6.6162e-06
6.6406e-06
6.6406e-06
6.665e-06
6.6406e-06
6.665e-06
6.6406e-06
6.665e-06
6.665e-06
6.6895e-06
6.6895e-06
6.7139e-06
6.6895e-06
6.7139e-06
6.7139e-06
6.7383e-06
6.7139e-06
6.7383e-06
6.7139e-06
6.7383e-06
6.7139e-06
6.7627e-06
6.7383e-06
6.7627e-06
6.7383e-06
6.7871e-06
6.7627e-06
6.7871e-06
6.7627e-06
6.7871e-06
6.7871e-06
6.8115e-06
6.7871e-06
6.8115e-06
6.7871e-06
6.8115e-06
6.8115e-06
6.8359e-06
6.8115e-06
6.8359e-06
6.8115e-06
6.8359e-06
6.8359e-06
6.8604e-06
6.8359e-06
6.8604e-06
6.8359e-06
6.8604e-06
6.8359e-06
6.8604e-06
6.8604e-06
6.8604e-06
6.8604e-06
6.8848e-06
6.8604e-06
6.8848e-06
6.8604e-06
6.8848e-06
6.8604e-06
6.8848e-06
6.8604e-06
6.8848e-06
6.8604e-06
6.8848e-06
6.8848e-06
6.9092e-06
6.8848e-06
6.9092e-06
6.8848e-06
6.9092e-06
6.8848e-06
6.9092e-06
6.8848e-06
6.9092e-06
6.8848e-06
6.9092e-06
6.8848e-06
6.9092e-06
6.9092e-06
6.9092e-06
6.9092e-06
6.9092e-06
6.9092e-06
6.9092e-06
6.9092e-06
6.9092e-06
6.9092e-06
6.9092e-06
6.9092e-06
6.9092e-06
6.9092e-06
6.9092e-06
6.9092e-06
6.9336e-06
6.9092e-06
6.9092e-06
6.9092e-06
6.9336e-06
6.9092e-06
6.9092e-06
6.9092e-06
6.9092e-06
6.8848e-06
6.9092e-06
6.8848e-06
6.9092e-06
6.8848e-06
6.9092e-06
6.8848e-06
6.9092e-06
6.8848e-06
6.9092e-06
6.8848e-06
6.9092e-06
6.8848e-06
6.9092e-06
6.8848e-06
6.9092e-06
6.8848e-06
6.9092e-06
6.8848e-06
6.9092e-06
6.8604e-06
6.8848e-06
6.8848e-06
6.8848e-06
6.8604e-06
6.8848e-06
6.8604e-06
6.8848e-06
6.8604e-06
6.8848e-06
6.8604e-06
6.8848e-06
6.8604e-06
6.8848e-06
6.8604e-06
6.8604e-06
6.8604e-06
6.8604e-06
6.8359e-06
6.8604e-06
6.8359e-06
6.8604e-06
6.8359e-06
6.8604e-06
6.8359e-06
6.8604e-06
6.8359e-06
6.8359e-06
6.8359e-06
6.8359e-06
6.8359e-06
6.8359e-06
6.8359e-06
6.8359e-06
6.8359e-06
6.8359e-06
6.8115e-06
6.8359e-06
6.8115e-06
6.8359e-06
6.8115e-06
6.8115e-06
6.8115e-06
6.8115e-06
6.8115e-06
6.8115e-06
6.8115e-06
6.8115e-06
6.8115e-06
6.8115e-06
6.7871e-06
6.7871e-06
6.7871e-06
6.8115e-06
6.7871e-06
6.8115e-06
6.7871e-06
6.7871e-06
6.7871e-06
6.7871e-06
6.7627e-06
6.7871e-06
6.7627e-06
6.7871e-06
6.7627e-06
6.7871e-06
6.7627e-06
6.7871e-06
6.7627e-06
6.7871e-06
6.7627e-06
6.7627e-06
6.7627e-06
6.7627e-06
6.7383e-06
6.7627e-06
6.7383e-06
6.7627e-06
6.7383e-06
6.7627e-06
6.7383e-06
6.7627e-06
6.7383e-06
6.7383e-06
6.7383e-06
6.7383e-06
6.7383e-06
6.7383e-06
6.7383e-06
6.7383e-06
6.7139e-06
6.7383e-06
6.7139e-06
6.7383e-06
6.7139e-06
6.7139e-06
6.7139e-06
6.7139e-06
6.7139e-06
6.7139e-06
6.7139e-06
6.7139e-06
6.7139e-06
6.7139e-06
6.7139e-06
6.7139e-06
6.6895e-06
6.7139e-06
6.7139e-06
6.7139e-06
6.6895e-06
6.7139e-06
6.6895e-06
6.7139e-06
6.6895e-06
6.7139e-06
6.6895e-06
6.6895e-06
6.6895e-06
6.6895e-06
6.6895e-06
6.6895e-06
6.665e-06
6.6895e-06
6.6895e-06
6.6895e-06
6.665e-06
6.6895e-06
6.665e-06
6.6895e-06
6.665e-06
6.665e-06
6.665e-06
6.665e-06
6.665e-06
6.6895e-06
6.665e-06
6.6895e-06
6.665e-06
6.665e-06
6.665e-06
6.665e-06
6.665e-06
6.665e-06
6.665e-06
6.665e-06
6.665e-06
6.665e-06
6.665e-06
6.665e-06
6.6406e-06
6.665e-06
6.665e-06
6.6406e-06
6.6406e-06
6.665e-06
6.6406e-06
6.665e-06
6.6406e-06
6.665e-06
6.6406e-06
6.665e-06
6.6406e-06
6.6406e-06
6.6406e-06
6.6406e-06
6.6406e-06
6.665e-06
6.6406e-06
6.6406e-06
6.6406e-06
6.6406e-06
6.6406e-06
6.6406e-06
6.6162e-06
6.6406e-06
6.6162e-06
6.6406e-06
6.6162e-06
6.6406e-06
6.6162e-06
6.6406e-06
6.6162e-06
6.6406e-06
6.6162e-06
6.6406e-06
6.6162e-06
6.6162e-06
6.6162e-06
6.6162e-06
6.6162e-06
6.6406e-06
6.6162e-06
6.6162e-06
6.6162e-06
6.6162e-06
6.6162e-06
6.6162e-06
6.6162e-06
6.6162e-06
6.6162e-06
6.6162e-06
6.6162e-06
6.6162e-06
6.6162e-06
6.6162e-06
6.6162e-06
6.6162e-06
6.6162e-06
6.6162e-06
6.6162e-06
6.6162e-06
6.6162e-06
6.6162e-06
6.6162e-06
6.6162e-06
6.5918e-06
6.6162e-06
6.6162e-06
6.6162e-06
6.6162e-06
6.6162e-06
6.6162e-06
6.6162e-06
6.5918e-06
6.6162e-06
6.6162e-06
6.6162e-06
6.6162e-06
6.5918e-06
6.5918e-06
6.6162e-06
6.5918e-06
6.5918e-06
6.5918e-06
6.6162e-06
6.5918e-06
6.5918e-06
6.5918e-06
6.5918e-06
6.5918e-06
6.6162e-06
6.5918e-06
6.5918e-06
6.5918e-06
6.5918e-06
6.5918e-06
6.5918e-06
6.5918e-06
6.5918e-06
6.5918e-06
6.6162e-06
6.5918e-06
6.5918e-06
6.5918e-06
6.5918e-06
6.5918e-06
6.5918e-06
6.5918e-06
6.6162e-06
6.6162e-06
6.6162e-06
6.6162e-06
6.6162e-06
6.6162e-06
6.6162e-06
6.6162e-06
6.6162e-06
6.6162e-06
6.6162e-06
6.6162e-06
6.6162e-06
6.6162e-06
6.6162e-06
6.6162e-06
6.6162e-06
6.6162e-06
6.6406e-06
6.6406e-06
6.6406e-06
6.6406e-06
6.6406e-06
6.6406e-06
6.6406e-06
6.6406e-06
6.6406e-06
6.6406e-06
6.665e-06
6.665e-06
6.665e-06
6.665e-06
6.665e-06
6.665e-06
6.6895e-06
6.6895e-06
6.6895e-06
6.6895e-06
6.6895e-06
6.6895e-06
6.6895e-06
6.6895e-06
6.6895e-06
6.7139e-06
6.7139e-06
6.7139e-06
6.7139e-06
6.7139e-06
6.7139e-06
6.7139e-06
6.7383e-06
6.7139e-06
6.7383e-06
6.7139e-06
6.7383e-06
6.7383e-06
6.7383e-06
6.7383e-06
6.7383e-06
6.7383e-06
6.7627e-06
6.7627e-06
6.7627e-06
6.7627e-06
6.7627e-06
6.7627e-06
6.7871e-06
6.7627e-06
6.7871e-06
6.7871e-06
6.7871e-06
6.7871e-06
6.7871e-06
6.7871e-06
6.7871e-06
6.7871e-06
6.7871e-06
6.8115e-06
6.8115e-06
6.8115e-06
6.8115e-06
6.8115e-06
6.8115e-06
6.8115e-06
6.8115e-06
6.8115e-06
6.8359e-06
6.8115e-06
6.8115e-06
6.8115e-06
6.8359e-06
6.8359e-06
6.8359e-06
6.8359e-06
6.8359e-06
6.8359e-06
6.8359e-06
6.8359e-06
6.8359e-06
6.8359e-06
6.8359e-06
6.8359e-06
6.8359e-06
6.8359e-06
6.8359e-06
6.8359e-06
6.8604e-06
6.8359e-06
6.8359e-06
6.8359e-06
6.8359e-06
6.8359e-06
6.8604e-06
6.8359e-06
6.8604e-06
6.8359e-06
6.8604e-06
6.8604e-06
6.8604e-06
6.8604e-06
6.8604e-06
6.8604e-06
6.8604e-06
6.8604e-06
6.8604e-06
6.8604e-06
6.8604e-06
6.8604e-06
6.8604e-06
6.8604e-06
6.8604e-06
6.8604e-06
6.8604e-06
6.8604e-06
6.8604e-06
6.8604e-06
6.8604e-06
6.8604e-06
6.8604e-06
6.8604e-06
6.8604e-06
6.8604e-06
6.8604e-06
6.8604e-06
6.8604e-06
6.8604e-06
6.8604e-06
6.8604e-06
6.8604e-06
6.8604e-06
6.8604e-06
6.8604e-06
6.8604e-06
6.8604e-06
6.8604e-06
6.8604e-06
6.8604e-06
6.8604e-06
6.8604e-06
6.8359e-06
6.8604e-06
6.8604e-06
6.8359e-06
6.8359e-06
6.8359e-06
6.8359e-06
6.8359e-06
6.8359e-06
6.8359e-06
6.8359e-06
6.8359e-06
6.8359e-06
6.8359e-06
6.8359e-06
6.8359e-06
6.8359e-06
6.8359e-06
6.8359e-06
6.8359e-06
6.8359e-06
6.8359e-06
6.8359e-06
6.8359e-06
6.8359e-06
6.8359e-06
6.8359e-06
6.8359e-06
6.8115e-06
6.8359e-06
6.8359e-06
6.8359e-06
6.8359e-06
6.8359e-06
6.8115e-06
6.8115e-06
6.8115e-06
6.8115e-06
6.8115e-06
6.8115e-06
6.8115e-06
6.8115e-06
6.8115e-06
6.8115e-06
6.8115e-06
6.8115e-06
6.8115e-06
6.8115e-06
6.7871e-06
6.7871e-06
6.7871e-06
6.7871e-06
6.7871e-06
6.7871e-06
6.7871e-06
6.7871e-06
6.7871e-06
6.7871e-06
6.7871e-06
6.7871e-06
6.7871e-06
6.7871e-06
6.7871e-06
6.7871e-06
6.7871e-06
6.7627e-06
6.7871e-06
6.7627e-06
6.7871e-06
6.7627e-06
6.7627e-06
6.7627e-06
6.7627e-06
6.7627e-06
6.7627e-06
6.7627e-06
6.7627e-06
6.7627e-06
6.7627e-06
6.7627e-06
6.7627e-06
6.7627e-06
6.7627e-06
6.7383e-06
6.7383e-06
6.7383e-06
6.7627e-06
6.7627e-06
6.7627e-06
6.7383e-06
6.7627e-06
6.7383e-06
6.7383e-06
6.7383e-06
6.7383e-06
6.7383e-06
6.7383e-06
6.7383e-06
6.7383e-06
6.7383e-06
6.7383e-06
6.7383e-06
6.7383e-06
6.7383e-06
6.7383e-06
6.7139e-06
6.7383e-06
6.7383e-06
6.7383e-06
6.7139e-06
6.7383e-06
6.7383e-06
6.7139e-06
6.7139e-06
6.7383e-06
6.7383e-06
6.7383e-06
6.7383e-06
6.7383e-06
6.7139e-06
6.7139e-06
6.7139e-06
6.7383e-06
6.7139e-06
6.7139e-06
6.7139e-06
6.7139e-06
6.7139e-06
6.7139e-06
6.7139e-06
6.7139e-06
6.7139e-06
6.7139e-06
6.7139e-06
6.7139e-06
6.7139e-06
6.7139e-06
6.7139e-06
6.7139e-06
6.7139e-06
6.7139e-06
6.7139e-06
6.7139e-06
6.7139e-06
6.7139e-06
6.7139e-06
6.7139e-06
6.7139e-06
6.7139e-06
6.6895e-06
6.7139e-06
6.7139e-06
6.7139e-06
6.6895e-06
6.7139e-06
6.7139e-06
6.7139e-06
6.7139e-06
6.7139e-06
6.7139e-06
6.7139e-06
6.7139e-06
6.7139e-06
6.6895e-06
6.7139e-06
6.7139e-06
6.7139e-06
6.6895e-06
6.6895e-06
6.7139e-06
6.7139e-06
6.6895e-06
6.7139e-06
6.6895e-06
6.6895e-06
6.6895e-06
6.6895e-06
6.6895e-06
6.6895e-06
6.6895e-06
6.6895e-06
6.6895e-06
6.6895e-06
6.6895e-06
6.6895e-06
6.6895e-06
6.6895e-06
6.6895e-06
6.6895e-06
6.6895e-06
6.6895e-06
6.6895e-06
6.6895e-06
6.6895e-06
6.6895e-06
6.6895e-06
6.665e-06
6.665e-06
6.6895e-06
6.665e-06
6.665e-06
6.6895e-06
6.6895e-06
6.665e-06
6.665e-06
6.665e-06
6.665e-06
6.665e-06
6.665e-06
6.665e-06
6.6895e-06
6.665e-06
6.665e-06
6.665e-06
6.665e-06
6.665e-06
6.665e-06
6.665e-06
6.665e-06
6.665e-06
6.665e-06
6.665e-06
6.665e-06
6.665e-06
6.665e-06
6.665e-06
6.665e-06
6.665e-06
6.665e-06
6.665e-06
6.665e-06
6.665e-06
6.665e-06
6.665e-06
6.665e-06
6.665e-06
6.665e-06
6.665e-06
6.665e-06
6.665e-06
6.665e-06
6.665e-06
6.665e-06
6.665e-06
6.665e-06
6.665e-06
6.665e-06
6.665e-06
6.665e-06
6.665e-06
6.665e-06
6.665e-06
6.665e-06
6.665e-06
6.665e-06
6.6406e-06
6.665e-06
6.665e-06
6.665e-06
6.6406e-06
6.665e-06
6.6406e-06
6.665e-06
6.665e-06
6.6406e-06
6.665e-06
6.665e-06
6.6406e-06
6.6406e-06
6.665e-06
6.6406e-06
6.6406e-06
6.6406e-06
6.6406e-06
6.6406e-06
6.6406e-06
6.6406e-06
6.6406e-06
6.665e-06
6.6406e-06
6.6406e-06
6.6406e-06
6.665e-06
6.6406e-06
6.6406e-06
6.6406e-06
6.6406e-06
6.6406e-06
6.6406e-06
6.6406e-06
6.6406e-06
6.6406e-06
6.6406e-06
6.6406e-06
6.6406e-06
6.6406e-06
6.6406e-06
6.6406e-06
6.6406e-06
6.6406e-06
6.6406e-06
6.6162e-06
6.6406e-06
6.6406e-06
6.6406e-06
6.6162e-06
6.6406e-06
6.6406e-06
6.6406e-06
6.6406e-06
6.6406e-06
6.6162e-06
6.6406e-06
6.6406e-06
6.6406e-06
6.6406e-06
6.6406e-06
6.6406e-06
6.6406e-06
6.6162e-06
6.6406e-06
6.6162e-06
6.6406e-06
6.6162e-06
6.6406e-06
6.6162e-06
6.6406e-06
6.6162e-06
6.6406e-06
6.6406e-06
6.6406e-06
6.6162e-06
6.6162e-06
6.6162e-06
6.6406e-06
6.6162e-06
6.6162e-06
6.6162e-06
6.6406e-06
6.6162e-06
6.6406e-06
6.6162e-06
6.6406e-06
6.6162e-06
6.6162e-06
6.6406e-06
6.6162e-06
6.6162e-06
6.6162e-06
6.6406e-06
6.6406e-06
6.6162e-06
6.6162e-06
6.6406e-06
6.6406e-06
6.6162e-06
6.6406e-06
6.6406e-06
6.6406e-06
6.6162e-06
6.6406e-06
6.6162e-06
6.6406e-06
6.6162e-06
6.6406e-06
6.6162e-06
6.6406e-06
6.6162e-06
6.6406e-06
6.6162e-06
6.6406e-06
6.6162e-06
6.6406e-06
6.6406e-06
6.6406e-06
6.6406e-06
6.6162e-06
6.6162e-06
6.6406e-06
6.6406e-06
6.6406e-06
6.6406e-06
6.6406e-06
6.6406e-06
6.6406e-06
6.6406e-06
6.6406e-06
6.6162e-06
6.6406e-06
6.6406e-06
6.6406e-06
6.6406e-06
6.6406e-06
6.6406e-06
6.6406e-06
6.6406e-06
6.6406e-06
6.6406e-06
6.665e-06
6.6406e-06
6.665e-06
6.6406e-06
6.665e-06
6.665e-06
6.665e-06
6.665e-06
6.665e-06
6.665e-06
6.665e-06
6.665e-06
6.665e-06
6.665e-06
6.665e-06
6.665e-06
6.665e-06
6.665e-06
6.665e-06
6.665e-06
6.665e-06
6.665e-06
6.6895e-06
6.665e-06
6.6895e-06
6.665e-06
6.6895e-06
6.665e-06
6.6895e-06
6.6895e-06
6.6895e-06
6.6895e-06
6.6895e-06
6.6895e-06
6.6895e-06
6.6895e-06
6.6895e-06
6.6895e-06
6.6895e-06
6.6895e-06
6.7139e-06
6.7139e-06
6.7139e-06
6.7139e-06
6.7139e-06
6.7139e-06
6.7139e-06
6.7139e-06
6.7139e-06
6.7139e-06
6.7139e-06
6.7139e-06
6.7139e-06
6.7139e-06
6.7139e-06
6.7139e-06
6.7139e-06
6.7139e-06
6.7139e-06
6.7139e-06
6.7383e-06
6.7139e-06
6.7383e-06
6.7139e-06
6.7383e-06
6.7139e-06
6.7139e-06
6.7383e-06
6.7383e-06
6.7139e-06
6.7383e-06
6.7383e-06
6.7383e-06
6.7383e-06
6.7383e-06
6.7383e-06
6.7383e-06
6.7383e-06
6.7383e-06
6.7383e-06
6.7383e-06
6.7383e-06
6.7383e-06
6.7383e-06
6.7383e-06
6.7383e-06
6.7627e-06
6.7383e-06
6.7627e-06
6.7383e-06
6.7627e-06
6.7383e-06
6.7627e-06
6.7383e-06
6.7627e-06
6.7383e-06
6.7627e-06
6.7627e-06
6.7627e-06
6.7627e-06
6.7627e-06
6.7383e-06
6.7627e-06
6.7627e-06
6.7627e-06
6.7627e-06
6.7627e-06
6.7383e-06
6.7871e-06
6.7627e-06
6.7627e-06
6.7627e-06
6.7627e-06
6.7383e-06
6.7627e-06
6.7627e-06
6.7627e-06
6.7627e-06
6.7627e-06
6.7627e-06
6.7627e-06
6.7627e-06
6.7871e-06
6.7627e-06
6.7627e-06
6.7627e-06
6.7627e-06
6.7383e-06
6.7627e-06
6.7383e-06
6.7627e-06
6.7627e-06
6.7627e-06
6.7383e-06
6.7627e-06
6.7627e-06
6.7627e-06
6.7383e-06
6.7627e-06
6.7627e-06
6.7627e-06
6.7627e-06
6.7627e-06
6.7627e-06
6.7627e-06
6.7627e-06
6.7627e-06
6.7383e-06
6.7627e-06
6.7627e-06
6.7627e-06
6.7627e-06
6.7627e-06
6.7383e-06
6.7627e-06
6.7383e-06
6.7627e-06
6.7383e-06
6.7627e-06
6.7383e-06
6.7627e-06
6.7383e-06
6.7627e-06
6.7383e-06
6.7627e-06
6.7383e-06
6.7383e-06
6.7383e-06
6.7627e-06
6.7383e-06
6.7627e-06
6.7383e-06
6.7383e-06
6.7383e-06
6.7627e-06
6.7383e-06
6.7627e-06
6.7383e-06
6.7383e-06
6.7383e-06
6.7627e-06
6.7383e-06
6.7383e-06
6.7383e-06
6.7383e-06
6.7383e-06
6.7383e-06
6.7383e-06
6.7383e-06
6.7383e-06
6.7383e-06
6.7383e-06
6.7383e-06
6.7383e-06
6.7383e-06
6.7139e-06
6.7383e-06
6.7139e-06
6.7383e-06
6.7139e-06
6.7383e-06
6.7383e-06
6.7383e-06
6.7383e-06
6.7383e-06
6.7139e-06
6.7383e-06
6.7139e-06
6.7383e-06
6.7139e-06
6.7383e-06
6.7139e-06
6.7383e-06
6.7139e-06
6.7139e-06
6.7139e-06
6.7139e-06
6.7139e-06
6.7139e-06
6.7139e-06
6.7383e-06
6.7139e-06
6.7139e-06
6.7139e-06
6.7139e-06
6.7139e-06
6.7383e-06
6.7139e-06
6.7139e-06
6.7139e-06
6.7139e-06
6.7139e-06
6.7139e-06
6.7139e-06
6.7139e-06
6.7139e-06
6.7139e-06
6.7139e-06
6.7139e-06
6.7139e-06
6.7139e-06
6.7139e-06
6.7139e-06
6.7139e-06
6.7139e-06
6.7139e-06
6.7139e-06
6.7139e-06
6.7139e-06
6.7139e-06
6.7139e-06
6.7139e-06
6.7139e-06
6.6895e-06
6.7139e-06
6.6895e-06
6.7139e-06
6.6895e-06
6.7139e-06
6.6895e-06
6.7139e-06
6.6895e-06
6.7139e-06
6.6895e-06
6.7139e-06
6.6895e-06
6.7139e-06
6.6895e-06
6.7139e-06
6.6895e-06
6.7139e-06
6.6895e-06
6.7139e-06
6.6895e-06
6.7139e-06
6.6895e-06
6.7139e-06
6.6895e-06
6.6895e-06
6.6895e-06
6.7139e-06
6.665e-06
6.6895e-06
6.6895e-06
6.7139e-06
6.6895e-06
6.6895e-06
6.6895e-06
6.6895e-06
6.6895e-06
6.6895e-06
6.6895e-06
6.6895e-06
6.6895e-06
6.6895e-06
6.6895e-06
6.6895e-06
6.6895e-06
6.6895e-06
6.665e-06
6.6895e-06
6.665e-06
6.6895e-06
6.665e-06
6.6895e-06
6.665e-06
6.6895e-06
6.665e-06
6.6895e-06
6.665e-06
6.6895e-06
6.665e-06
6.6895e-06
6.665e-06
6.6895e-06
6.665e-06
6.6895e-06
6.665e-06
6.6895e-06
6.665e-06
6.6895e-06
6.665e-06
6.665e-06
6.665e-06
6.665e-06
6.665e-06
6.665e-06
6.665e-06
6.6895e-06
6.665e-06
6.6895e-06
6.665e-06
6.665e-06
6.665e-06
6.665e-06
6.665e-06
6.665e-06
6.665e-06
6.665e-06
6.665e-06
6.665e-06
6.665e-06
6.665e-06
6.665e-06
6.665e-06
6.665e-06
6.665e-06
6.665e-06
6.665e-06
6.665e-06
6.665e-06
6.665e-06
6.665e-06
6.665e-06
6.665e-06
6.6406e-06
6.665e-06
6.665e-06
6.665e-06
6.665e-06
6.665e-06
6.665e-06
6.665e-06
6.6406e-06
6.665e-06
6.665e-06
6.665e-06
6.665e-06
6.665e-06
6.6406e-06
6.665e-06
6.665e-06
6.665e-06
6.665e-06
6.665e-06
6.6406e-06
6.665e-06
6.6406e-06
6.665e-06
6.665e-06
6.665e-06
6.665e-06
6.665e-06
6.6406e-06
6.665e-06
6.6406e-06
6.665e-06
6.6406e-06
6.665e-06
6.665e-06
6.665e-06
6.6406e-06
6.665e-06
6.6406e-06
6.665e-06
6.6406e-06
6.665e-06
6.6406e-06
6.6406e-06
6.665e-06
6.665e-06
6.6406e-06
6.665e-06
6.6406e-06
6.665e-06
6.6406e-06
6.6406e-06
6.665e-06
6.665e-06
6.6406e-06
6.665e-06
6.6406e-06
6.6406e-06
6.6406e-06
6.665e-06
6.6406e-06
6.665e-06
6.6406e-06
6.6406e-06
6.6406e-06
6.665e-06
6.6406e-06
6.665e-06
6.6406e-06
6.665e-06
6.6406e-06
6.6406e-06
6.6406e-06
6.665e-06
6.6406e-06
6.665e-06
6.6406e-06
6.665e-06
6.6406e-06
6.6406e-06
6.6406e-06
6.665e-06
6.6406e-06
6.6406e-06
6.6406e-06
6.665e-06
6.6406e-06
6.665e-06
6.6406e-06
6.665e-06
6.6406e-06
6.6406e-06
6.6406e-06
6.6406e-06
6.6406e-06
6.665e-06
6.6406e-06
6.665e-06
6.6406e-06
6.665e-06
6.6406e-06
6.665e-06
6.6406e-06
6.665e-06
6.6406e-06
6.665e-06
6.6406e-06
6.6406e-06
6.6406e-06
6.6406e-06
6.6406e-06
6.665e-06
6.6406e-06
6.665e-06
6.6406e-06
6.665e-06
6.665e-06
6.665e-06
6.6406e-06
6.665e-06
6.665e-06
6.665e-06
6.665e-06
6.665e-06
6.6406e-06
6.665e-06
6.6406e-06
6.665e-06
6.665e-06
6.665e-06
6.6406e-06
6.665e-06
6.6406e-06
6.665e-06
6.665e-06
6.665e-06
6.665e-06
6.665e-06
6.665e-06
6.665e-06
6.665e-06
6.6895e-06
6.665e-06
6.665e-06
6.665e-06
6.6895e-06
6.665e-06
6.665e-06
6.665e-06
6.6895e-06
6.665e-06
6.6895e-06
6.665e-06
6.6895e-06
6.665e-06
6.6895e-06
6.665e-06
6.6895e-06
6.665e-06
6.6895e-06
6.665e-06
6.665e-06
6.665e-06
6.6895e-06
6.665e-06
6.6895e-06
6.665e-06
6.6895e-06
6.665e-06
6.6895e-06
6.665e-06
6.6895e-06
6.665e-06
6.6895e-06
6.6895e-06
6.6895e-06
6.665e-06
6.6895e-06
6.6895e-06
6.6895e-06
6.665e-06
6.6895e-06
6.6895e-06
6.6895e-06
6.6895e-06
6.6895e-06
6.6895e-06
6.6895e-06
6.6895e-06
6.6895e-06
6.6895e-06
6.6895e-06
6.6895e-06
6.7139e-06
6.6895e-06
6.7139e-06
6.6895e-06
6.6895e-06
6.6895e-06
6.6895e-06
6.6895e-06
6.7139e-06
6.6895e-06
6.7139e-06
6.6895e-06
6.7139e-06
6.6895e-06
6.7139e-06
6.6895e-06
6.7139e-06
6.6895e-06
6.7139e-06
6.6895e-06
6.7139e-06
6.6895e-06
6.7139e-06
6.6895e-06
6.7139e-06
6.6895e-06
6.7139e-06
6.6895e-06
6.7139e-06
6.6895e-06
6.7139e-06
6.7139e-06
6.7139e-06
6.6895e-06
6.7139e-06
6.6895e-06
6.7139e-06
6.7139e-06
6.7139e-06
6.6895e-06
6.7139e-06
6.6895e-06
6.7139e-06
6.7139e-06
6.7139e-06
6.7139e-06
6.7139e-06
6.7139e-06
6.7139e-06
6.7139e-06
6.7139e-06
6.7139e-06
6.7139e-06
6.6895e-06
6.7139e-06
6.6895e-06
6.7139e-06
6.7139e-06
6.7139e-06
6.7139e-06
6.7139e-06
6.7139e-06
6.7139e-06
6.7139e-06
6.7139e-06
6.7139e-06
6.7139e-06
6.7139e-06
6.7139e-06
6.7139e-06
6.7139e-06
6.7139e-06
6.7383e-06
6.7139e-06
6.7139e-06
6.6895e-06
6.7139e-06
6.7139e-06
6.7139e-06
6.7139e-06
6.7139e-06
6.7139e-06
6.7139e-06
6.7139e-06
6.7139e-06
6.7139e-06
6.7139e-06
6.7139e-06
6.7139e-06
6.7139e-06
6.7139e-06
6.7139e-06
6.7139e-06
6.7139e-06
6.7139e-06
6.7139e-06
6.7139e-06
6.7139e-06
6.7139e-06
6.7139e-06
6.7139e-06
6.7139e-06
6.7139e-06
6.7139e-06
6.7139e-06
6.7139e-06
6.7139e-06
6.7139e-06
6.7139e-06
6.6895e-06
6.7139e-06
6.6895e-06
6.7139e-06
6.7139e-06
6.7139e-06
6.7139e-06
6.7139e-06
6.7139e-06
6.7139e-06
6.6895e-06
6.7139e-06
6.7139e-06
6.7139e-06
6.6895e-06
6.7139e-06
6.6895e-06
6.7139e-06
6.6895e-06
6.7139e-06
6.7139e-06
6.7139e-06
6.6895e-06
6.7139e-06
6.6895e-06
6.7139e-06
6.7139e-06
6.7139e-06
6.6895e-06
6.7139e-06
6.6895e-06
6.7139e-06
6.6895e-06
6.7139e-06
6.6895e-06
6.7139e-06
6.6895e-06
6.7139e-06
6.6895e-06
6.7139e-06
6.6895e-06
6.7139e-06
6.6895e-06
6.7139e-06
6.6895e-06
6.7139e-06
6.6895e-06
6.7139e-06
6.6895e-06
6.7139e-06
6.665e-06
6.7139e-06
6.6895e-06
6.6895e-06
6.6895e-06
6.7139e-06
6.6895e-06
6.7139e-06
6.6895e-06
6.7139e-06
6.6895e-06
6.7139e-06
6.665e-06
6.6895e-06
6.6895e-06
6.7139e-06
6.6895e-06
6.7139e-06
6.6895e-06
6.7139e-06
6.665e-06
6.7139e-06
6.6895e-06
6.6895e-06
6.665e-06
6.6895e-06
6.6895e-06
6.6895e-06
6.665e-06
6.6895e-06
6.665e-06
6.6895e-06
6.665e-06
6.6895e-06
6.6895e-06
6.6895e-06
6.665e-06
6.6895e-06
6.665e-06
6.6895e-06
6.665e-06
6.6895e-06
6.665e-06
6.6895e-06
6.665e-06
6.6895e-06
6.665e-06
6.6895e-06
6.665e-06
6.6895e-06
6.665e-06
6.6895e-06
6.665e-06
6.6895e-06
6.665e-06
6.6895e-06
6.665e-06
6.6895e-06
6.665e-06
6.6895e-06
6.665e-06
6.6895e-06
6.665e-06
6.6895e-06
6.665e-06
6.6895e-06
6.665e-06
6.665e-06
6.665e-06
6.6895e-06
6.665e-06
6.6895e-06
6.665e-06
6.6895e-06
6.665e-06
6.665e-06
6.6406e-06
6.665e-06
6.665e-06
6.665e-06
6.665e-06
6.665e-06
6.665e-06
6.665e-06
6.665e-06
6.665e-06
6.6406e-06
6.6895e-06
6.665e-06
6.665e-06
6.6406e-06
6.665e-06
6.665e-06
6.665e-06
6.665e-06
6.665e-06
6.6406e-06
6.665e-06
6.6406e-06
6.665e-06
6.665e-06
6.665e-06
6.6406e-06
6.665e-06
6.6406e-06
6.665e-06
6.665e-06
6.665e-06
6.6406e-06
6.665e-06
6.6406e-06
6.665e-06
6.6406e-06
6.665e-06
6.6406e-06
6.665e-06
6.665e-06
6.665e-06
6.665e-06
6.665e-06
6.6406e-06
6.665e-06
6.6406e-06
6.665e-06
6.6406e-06
6.665e-06
6.6406e-06
6.665e-06
6.6406e-06
6.665e-06
6.6406e-06
6.665e-06
6.6406e-06
6.665e-06
6.6406e-06
6.665e-06
6.6406e-06
6.665e-06
6.6406e-06
6.665e-06
6.6406e-06
6.665e-06
6.6406e-06
6.665e-06
6.6406e-06
6.6406e-06
6.6406e-06
6.665e-06
6.6406e-06
6.665e-06
6.6406e-06
6.665e-06
6.6406e-06
6.665e-06
6.6406e-06
6.665e-06
6.6406e-06
6.665e-06
6.6406e-06
6.665e-06
6.6406e-06
6.665e-06
6.6406e-06
6.6406e-06
6.6162e-06
6.6406e-06
6.6162e-06
6.665e-06
6.6162e-06
6.665e-06
6.6406e-06
6.665e-06
6.6406e-06
6.6406e-06
6.6406e-06
6.6406e-06
6.6406e-06
6.665e-06
6.6162e-06
6.6406e-06
6.6406e-06
6.665e-06
6.6162e-06
6.6406e-06
6.6406e-06
6.6406e-06
6.6162e-06
6.6406e-06
6.6406e-06
6.665e-06
6.6406e-06
6.6406e-06
6.6406e-06
6.6406e-06
6.6406e-06
6.6406e-06
6.6162e-06
6.6406e-06
6.6162e-06
6.6406e-06
6.6162e-06
6.6406e-06
6.6406e-06
6.6406e-06
6.6162e-06
6.665e-06
6.6162e-06
6.6406e-06
6.6162e-06
6.665e-06
6.6406e-06
6.665e-06
6.6406e-06
6.6406e-06
6.6162e-06
6.665e-06
6.6406e-06
6.665e-06
6.6406e-06
6.665e-06
6.6406e-06
6.665e-06
6.6406e-06
6.665e-06
6.6406e-06
6.665e-06
6.6406e-06
6.665e-06
6.6406e-06
6.665e-06
6.6406e-06
6.665e-06
6.6406e-06
6.665e-06
6.6406e-06
6.665e-06
6.6406e-06
6.665e-06
6.6406e-06
6.665e-06
6.6406e-06
6.665e-06
6.665e-06
6.665e-06
6.665e-06
6.6895e-06
6.665e-06
6.6895e-06
6.665e-06
6.6895e-06
6.665e-06
6.6895e-06
6.665e-06
6.6895e-06
6.665e-06
6.6895e-06
6.665e-06
6.6895e-06
6.665e-06
6.6895e-06
6.665e-06
6.6895e-06
6.665e-06
6.6895e-06
6.665e-06
6.6895e-06
6.665e-06
6.7139e-06
6.665e-06
6.7139e-06
6.6895e-06
6.7139e-06
6.6895e-06
6.7139e-06
6.6895e-06
6.7139e-06
6.6895e-06
6.7139e-06
6.6895e-06
6.7139e-06
6.6895e-06
6.7139e-06
6.6895e-06
6.7139e-06
6.7139e-06
6.7139e-06
6.7139e-06
6.7139e-06
6.6895e-06
6.7139e-06
6.6895e-06
6.7139e-06
6.7139e-06
6.7383e-06
6.7139e-06
6.7139e-06
6.7139e-06
6.7383e-06
6.7139e-06
6.7383e-06
6.7139e-06
6.7383e-06
6.7139e-06
6.7383e-06
6.7139e-06
6.7383e-06
6.7139e-06
6.7383e-06
6.7139e-06
6.7383e-06
6.7139e-06
6.7383e-06
6.7139e-06
6.7383e-06
6.7139e-06
6.7383e-06
6.7139e-06
6.7383e-06
6.7139e-06
6.7383e-06
6.7139e-06
6.7627e-06
6.7139e-06
6.7383e-06
6.7139e-06
6.7627e-06
6.7139e-06
6.7627e-06
6.7139e-06
6.7627e-06
6.7383e-06
6.7627e-06
6.7383e-06
6.7871e-06
6.7383e-06
6.7627e-06
6.7383e-06
6.7871e-06
6.7383e-06
6.7871e-06
6.7383e-06
6.7871e-06
6.7627e-06
6.7871e-06
6.7627e-06
6.7871e-06
6.7627e-06
6.7871e-06
6.7627e-06
6.7871e-06
6.7627e-06
6.7871e-06
6.7627e-06
6.8115e-06
6.7871e-06
6.8115e-06
6.7871e-06
6.8115e-06
6.7871e-06
6.8115e-06
6.7871e-06
6.8115e-06
6.7871e-06
6.8115e-06
6.7871e-06
6.8359e-06
6.7871e-06
6.8359e-06
6.7871e-06
6.8359e-06
6.8115e-06
6.8359e-06
6.8115e-06
6.8359e-06
6.8115e-06
6.8359e-06
6.8115e-06
6.8359e-06
6.8359e-06
6.8359e-06
6.8359e-06
6.8604e-06
6.8359e-06
6.8604e-06
6.8359e-06
6.8604e-06
6.8359e-06
6.8604e-06
6.8359e-06
6.8604e-06
6.8359e-06
6.8604e-06
6.8359e-06
6.8604e-06
6.8359e-06
6.8604e-06
6.8359e-06
6.8604e-06
6.8604e-06
6.8848e-06
6.8604e-06
6.8848e-06
6.8604e-06
6.8848e-06
6.8604e-06
6.8848e-06
6.8604e-06
6.8848e-06
6.8604e-06
6.9092e-06
6.8604e-06
6.8848e-06
6.8848e-06
6.9092e-06
6.8604e-06
6.8848e-06
6.8848e-06
6.9092e-06
6.8848e-06
6.9092e-06
6.8848e-06
6.9092e-06
6.8848e-06
6.9092e-06
6.8848e-06
6.9092e-06
6.8848e-06
6.9092e-06
6.8848e-06
6.9092e-06
6.8848e-06
6.9092e-06
6.8848e-06
6.9092e-06
6.8848e-06
6.9092e-06
6.9092e-06
6.9092e-06
6.8848e-06
6.9092e-06
6.8848e-06
6.9092e-06
6.8848e-06
6.9092e-06
6.9092e-06
6.9092e-06
6.8848e-06
6.9092e-06
6.9092e-06
6.9092e-06
6.8848e-06
6.9092e-06
6.9092e-06
6.9336e-06
6.8848e-06
6.9092e-06
6.8848e-06
6.9092e-06
6.8848e-06
6.9092e-06
6.9092e-06
6.9092e-06
6.9092e-06
6.9092e-06
6.8848e-06
6.9092e-06
6.8848e-06
6.9092e-06
6.8848e-06
6.9092e-06
6.8848e-06
6.9092e-06
6.8848e-06
6.9092e-06
6.8848e-06
6.9092e-06
6.8848e-06
6.9092e-06
6.8848e-06
6.9092e-06
6.8848e-06
6.9092e-06
6.8848e-06
6.9092e-06
6.8848e-06
6.9092e-06
6.8848e-06
6.9092e-06
6.8848e-06
6.9092e-06
6.8848e-06
6.9092e-06
6.8848e-06
6.9092e-06
6.8604e-06
6.9092e-06
6.8848e-06
6.9092e-06
6.8848e-06
6.8848e-06
6.8604e-06
6.9092e-06
6.8604e-06
6.9092e-06
6.8604e-06
6.9092e-06
6.8604e-06
6.9092e-06
6.8604e-06
6.8848e-06
6.8604e-06
6.9092e-06
6.8604e-06
6.8848e-06
6.8604e-06
6.8848e-06
6.8604e-06
6.8848e-06
6.8359e-06
6.8848e-06
6.8359e-06
6.8848e-06
6.8359e-06
6.8848e-06
6.8359e-06
6.8848e-06
6.8359e-06
6.8848e-06
6.8359e-06
6.8604e-06
6.8359e-06
6.8604e-06
6.8359e-06
6.8604e-06
6.8359e-06
6.8604e-06
6.8359e-06
6.8604e-06
6.8359e-06
6.8604e-06
6.8359e-06
6.8604e-06
6.8359e-06
6.8604e-06
6.8359e-06
6.8604e-06
6.8359e-06
6.8604e-06
6.8115e-06
6.8359e-06
6.8115e-06
6.8359e-06
6.8115e-06
6.8359e-06
6.8115e-06
6.8359e-06
6.8115e-06
6.8359e-06
6.8115e-06
6.8359e-06
6.8115e-06
6.8359e-06
6.8115e-06
6.8359e-06
6.8115e-06
6.8359e-06
6.8115e-06
6.8359e-06
6.7871e-06
6.8359e-06
6.7871e-06
6.8115e-06
6.7871e-06
6.8115e-06
6.7871e-06
6.8359e-06
6.7871e-06
6.8115e-06
6.7871e-06
6.8115e-06
6.7871e-06
6.8115e-06
6.7871e-06
6.8115e-06
6.7871e-06
6.8115e-06
6.7871e-06
6.8115e-06
6.7871e-06
6.8115e-06
6.7871e-06
6.7871e-06
6.7871e-06
6.7871e-06
6.7627e-06
6.7871e-06
6.7627e-06
6.7871e-06
6.7627e-06
6.7871e-06
6.7627e-06
6.7871e-06
6.7627e-06
6.7871e-06
6.7627e-06
6.7871e-06
6.7627e-06
6.7871e-06
6.7383e-06
6.7871e-06
6.7627e-06
6.7871e-06
6.7383e-06
6.7627e-06
6.7383e-06
6.7871e-06
6.7383e-06
6.7871e-06
6.7383e-06
6.7871e-06
6.7383e-06
6.7871e-06
6.7383e-06
6.7627e-06
6.7383e-06
6.7627e-06
6.7383e-06
6.7627e-06
6.7383e-06
6.7627e-06
6.7383e-06
6.7627e-06
6.7383e-06
6.7871e-06
6.7383e-06
6.7627e-06
6.7383e-06
6.7627e-06
6.7139e-06
6.7627e-06
6.7139e-06
6.7627e-06
6.7139e-06
6.7627e-06
6.7139e-06
6.7627e-06
6.7139e-06
6.7627e-06
6.7139e-06
6.7627e-06
6.7139e-06
6.7627e-06
6.7139e-06
6.7627e-06
6.7139e-06
6.7383e-06
6.7139e-06
6.7383e-06
6.7139e-06
6.7383e-06
6.7139e-06
6.7383e-06
6.7139e-06
6.7627e-06
6.7139e-06
6.7383e-06
6.7139e-06
6.7383e-06
6.7139e-06
6.7383e-06
6.6895e-06
6.7383e-06
6.7139e-06
6.7383e-06
6.7139e-06
6.7383e-06
6.7139e-06
6.7383e-06
6.6895e-06
6.7383e-06
6.6895e-06
6.7383e-06
6.6895e-06
6.7139e-06
6.6895e-06
6.7383e-06
6.6895e-06
6.7383e-06
6.6895e-06
6.7383e-06
6.6895e-06
6.7139e-06
6.6895e-06
6.7383e-06
6.6895e-06
6.7383e-06
6.6895e-06
6.7383e-06
6.6895e-06
6.7383e-06
6.6895e-06
6.7139e-06
6.6895e-06
6.7139e-06
6.6895e-06
6.7139e-06
6.6895e-06
6.7383e-06
6.6895e-06
6.7139e-06
6.6895e-06
6.7383e-06
6.6895e-06
6.7139e-06
6.6895e-06
6.7139e-06
6.6895e-06
6.7383e-06
6.6895e-06
6.7139e-06
6.6895e-06
6.7383e-06
6.6895e-06
6.7383e-06
6.6895e-06
6.7383e-06
6.6895e-06
6.7383e-06
6.7139e-06
6.7383e-06
6.6895e-06
6.7139e-06
6.6895e-06
6.7139e-06
6.7139e-06
6.7383e-06
6.7139e-06
6.7383e-06
6.7139e-06
6.7383e-06
6.7139e-06
6.7383e-06
6.7139e-06
6.7383e-06
6.7139e-06
6.7383e-06
6.7139e-06
6.7383e-06
6.7139e-06
6.7383e-06
6.7139e-06
6.7383e-06
6.6895e-06
6.7383e-06
6.7139e-06
6.7383e-06
6.7139e-06
6.7383e-06
6.7139e-06
6.7383e-06
6.7139e-06
6.7383e-06
6.7139e-06
6.7383e-06
6.7139e-06
6.7383e-06
6.7139e-06
6.7383e-06
6.7139e-06
6.7383e-06
6.7139e-06
6.7383e-06
6.7139e-06
6.7383e-06
6.7139e-06
6.7383e-06
6.7139e-06
6.7383e-06
6.7139e-06
6.7383e-06
6.7139e-06
6.7383e-06
6.7139e-06
6.7627e-06
6.7139e-06
6.7627e-06
6.7139e-06
6.7383e-06
6.7139e-06
6.7383e-06
6.7139e-06
6.7383e-06
6.7139e-06
6.7383e-06
6.7139e-06
6.7383e-06
6.7139e-06
6.7383e-06
6.7139e-06
6.7383e-06
6.7139e-06
6.7383e-06
6.7139e-06
6.7383e-06
6.7139e-06
6.7383e-06
6.7139e-06
6.7383e-06
6.7139e-06
6.7383e-06
6.7139e-06
6.7383e-06
6.6895e-06
6.7383e-06
6.7139e-06
6.7383e-06
6.7139e-06
6.7383e-06
6.7139e-06
6.7383e-06
6.7139e-06
6.7383e-06
6.7139e-06
6.7383e-06
6.7139e-06
6.7383e-06
6.7139e-06
6.7139e-06
6.7139e-06
6.7383e-06
6.7139e-06
6.7383e-06
6.7139e-06
6.7139e-06
6.7139e-06
6.7139e-06
6.7139e-06
6.7383e-06
6.7139e-06
6.7139e-06
6.7139e-06
6.7139e-06
6.6895e-06
6.7383e-06
6.7139e-06
6.7139e-06
6.6895e-06
6.7139e-06
6.6895e-06
6.7139e-06
6.6895e-06
6.7139e-06
6.6895e-06
6.7139e-06
6.6895e-06
6.7139e-06
6.6895e-06
6.7139e-06
6.665e-06
6.7139e-06
6.665e-06
6.7139e-06
6.6895e-06
6.7139e-06
6.6895e-06
6.7139e-06
6.6895e-06
6.7139e-06
6.6895e-06
6.7139e-06
6.665e-06
6.7139e-06
6.665e-06
6.7139e-06
6.6895e-06
6.7139e-06
6.665e-06
6.7139e-06
6.665e-06
6.7139e-06
6.6895e-06
6.7139e-06
6.6895e-06
6.7139e-06
6.665e-06
6.7139e-06
6.665e-06
6.7139e-06
6.665e-06
6.7139e-06
6.665e-06
6.7139e-06
6.665e-06
6.7139e-06
6.665e-06
6.7139e-06
6.665e-06
6.7139e-06
6.665e-06
6.7139e-06
6.665e-06
6.7139e-06
6.665e-06
6.7139e-06
6.665e-06
6.7139e-06
6.665e-06
6.7139e-06
6.665e-06
6.7139e-06
6.665e-06
6.7139e-06
6.665e-06
6.7139e-06
6.665e-06
6.7139e-06
6.665e-06
6.7139e-06
6.665e-06
6.7139e-06
6.665e-06
6.7139e-06
6.665e-06
6.7139e-06
6.665e-06
6.7139e-06
6.665e-06
6.7139e-06
6.665e-06
6.7139e-06
6.665e-06
6.7139e-06
6.665e-06
6.7139e-06
6.665e-06
6.7139e-06
6.665e-06
6.7139e-06
6.665e-06
6.7139e-06
6.665e-06
6.7139e-06
6.665e-06
6.7139e-06
6.665e-06
6.7139e-06
6.665e-06
6.7139e-06
6.665e-06
6.7139e-06
6.665e-06
6.7139e-06
6.6895e-06
6.7139e-06
6.665e-06
6.7139e-06
6.665e-06
6.7139e-06
6.6895e-06
6.7139e-06
6.665e-06
6.7139e-06
6.6895e-06
6.7139e-06
6.6895e-06
6.7139e-06
6.665e-06
6.7139e-06
6.665e-06
6.7139e-06
6.6895e-06
6.7139e-06
6.6895e-06
6.7139e-06
6.6895e-06
6.7139e-06
6.6895e-06
6.7139e-06
6.6895e-06
6.7139e-06
6.6895e-06
6.7139e-06
6.6895e-06
6.7139e-06
6.6895e-06
6.7139e-06
6.6895e-06
6.7139e-06
6.6895e-06
6.7139e-06
6.6895e-06
6.7139e-06
6.6895e-06
6.7139e-06
6.6895e-06
6.7139e-06
6.665e-06
6.7139e-06
6.6895e-06
6.7139e-06
6.6895e-06
6.7139e-06
6.6895e-06
6.7139e-06
6.6895e-06
6.7139e-06
6.6895e-06
6.7139e-06
6.665e-06
6.7139e-06
6.665e-06
6.7139e-06
6.6895e-06
6.7139e-06
6.6895e-06
6.7139e-06
6.6895e-06
6.7139e-06
6.6895e-06
6.7139e-06
6.665e-06
6.7139e-06
6.665e-06
6.7139e-06
6.6895e-06
6.7139e-06
6.665e-06
6.7139e-06
6.665e-06
6.6895e-06
6.665e-06
6.7139e-06
6.665e-06
6.7139e-06
6.665e-06
6.7139e-06
6.665e-06
6.6895e-06
6.665e-06
6.6895e-06
6.665e-06
6.7139e-06
6.665e-06
6.6895e-06
6.665e-06
6.6895e-06
6.665e-06
6.6895e-06
6.665e-06
6.6895e-06
6.665e-06
6.6895e-06
6.665e-06
6.6895e-06
6.665e-06
6.6895e-06
6.665e-06
6.6895e-06
6.665e-06
6.6895e-06
6.665e-06
6.6895e-06
6.665e-06
6.6895e-06
6.665e-06
6.6895e-06
6.665e-06
6.6895e-06
6.665e-06
6.6895e-06
6.665e-06
6.6895e-06
6.665e-06
6.6895e-06
6.665e-06
6.6895e-06
6.665e-06
6.6895e-06
6.665e-06
6.6895e-06
6.665e-06
6.6895e-06
6.665e-06
6.6895e-06
6.665e-06
6.6895e-06
6.665e-06
6.6895e-06
6.665e-06
6.6895e-06
6.665e-06
6.6895e-06
6.665e-06
6.6895e-06
6.665e-06
6.6895e-06
6.665e-06
6.6895e-06
6.665e-06
6.6895e-06
6.6406e-06
6.6895e-06
6.665e-06
6.6895e-06
6.665e-06
6.6895e-06
6.665e-06
6.6895e-06
6.665e-06
6.6895e-06
6.665e-06
6.6895e-06
6.665e-06
6.6895e-06
6.665e-06
6.6895e-06
6.665e-06
6.6895e-06
6.665e-06
6.6895e-06
6.665e-06
6.6895e-06
6.6406e-06
6.6895e-06
6.665e-06
6.6895e-06
6.665e-06
6.6895e-06
6.665e-06
6.6895e-06
6.665e-06
6.665e-06
6.665e-06
6.6895e-06
6.665e-06
6.6895e-06
6.665e-06
6.6895e-06
6.665e-06
6.665e-06
6.665e-06
6.6895e-06
6.665e-06
6.6895e-06
6.665e-06
6.6895e-06
6.6406e-06
6.6895e-06
6.665e-06
6.665e-06
6.6406e-06
6.6895e-06
6.665e-06
6.6895e-06
6.6406e-06
6.6895e-06
6.6406e-06
6.6895e-06
6.6406e-06
6.665e-06
6.665e-06
6.6895e-06
6.6406e-06
6.6895e-06
6.665e-06
6.6895e-06
6.6406e-06
6.665e-06
6.6406e-06
6.665e-06
6.6406e-06
6.665e-06
6.665e-06
6.6895e-06
6.6406e-06
6.665e-06
6.6406e-06
6.665e-06
6.6406e-06
6.665e-06
6.6406e-06
6.665e-06
6.6406e-06
6.665e-06
6.6406e-06
6.665e-06
6.6406e-06
6.665e-06
6.6406e-06
6.665e-06
6.6406e-06
6.665e-06
6.6406e-06
6.665e-06
6.6406e-06
6.665e-06
6.6406e-06
6.665e-06
6.6406e-06
6.665e-06
6.6406e-06
6.665e-06
6.6406e-06
6.665e-06
6.6162e-06
6.665e-06
6.6406e-06
6.665e-06
6.6406e-06
6.665e-06
6.6406e-06
6.665e-06
6.6406e-06
6.665e-06
6.6406e-06
6.665e-06
6.6406e-06
6.665e-06
6.6406e-06
6.665e-06
6.6406e-06
6.665e-06
6.6162e-06
6.665e-06
6.6162e-06
6.665e-06
6.6162e-06
6.665e-06
6.6162e-06
6.665e-06
6.6406e-06
6.665e-06
6.6406e-06
6.665e-06
6.6162e-06
6.6406e-06
6.6162e-06
6.6406e-06
6.6162e-06
6.665e-06
6.6162e-06
6.6406e-06
6.6162e-06
6.6406e-06
6.6162e-06
6.665e-06
6.6162e-06
6.6406e-06
6.6162e-06
6.6406e-06
6.6162e-06
6.6406e-06
6.6162e-06
6.6406e-06
6.6162e-06
6.6406e-06
6.6162e-06
6.6406e-06
6.6162e-06
6.6406e-06
6.6162e-06
6.6406e-06
6.6162e-06
6.6406e-06
6.6162e-06
6.6406e-06
6.6162e-06
6.6406e-06
6.6162e-06
6.6406e-06
6.6162e-06
6.6406e-06
6.6162e-06
6.6406e-06
6.6162e-06
6.6406e-06
6.6162e-06
6.6406e-06
6.6162e-06
6.6406e-06
6.6162e-06
6.6406e-06
6.6162e-06
6.6406e-06
6.6162e-06
6.6406e-06
6.6162e-06
6.6162e-06
6.5918e-06
6.6162e-06
6.6162e-06
6.6406e-06
6.6162e-06
6.6162e-06
6.5918e-06
6.6162e-06
6.5918e-06
6.6162e-06
6.6162e-06
6.6162e-06
6.5918e-06
6.6162e-06
6.5918e-06
6.6162e-06
6.5918e-06
6.6162e-06
6.5918e-06
6.6162e-06
6.5918e-06
6.6162e-06
6.5918e-06
6.6162e-06
6.5918e-06
6.6162e-06
6.5918e-06
6.6162e-06
6.5918e-06
6.6162e-06
6.5918e-06
6.6162e-06
6.5918e-06
6.6162e-06
6.5918e-06
6.6162e-06
6.5918e-06
6.6162e-06
6.5918e-06
6.6162e-06
6.5918e-06
6.6162e-06
6.5918e-06
6.6162e-06
6.5918e-06
6.6162e-06
6.5918e-06
6.6162e-06
6.5918e-06
6.6162e-06
6.5918e-06
6.6162e-06
6.5918e-06
6.6162e-06
6.5918e-06
6.6162e-06
6.5918e-06
6.6162e-06
6.5918e-06
6.6162e-06
6.5674e-06
6.6162e-06
6.5918e-06
6.5918e-06
6.5918e-06
6.6162e-06
6.5674e-06
6.5918e-06
6.5918e-06
6.6162e-06
6.5918e-06
6.5918e-06
6.5674e-06
6.5918e-06
6.5918e-06
6.5918e-06
6.5674e-06
6.5918e-06
6.5674e-06
6.5918e-06
6.5674e-06
6.5918e-06
6.5674e-06
6.5918e-06
6.5674e-06
6.5918e-06
6.5674e-06
6.5918e-06
6.5674e-06
6.5918e-06
6.5674e-06
6.5918e-06
6.5674e-06
6.5918e-06
6.5674e-06
6.5918e-06
6.5674e-06
6.5918e-06
6.5674e-06
6.5918e-06
6.5674e-06
6.5918e-06
6.5674e-06
6.5918e-06
6.5674e-06
6.5918e-06
6.543e-06
6.5674e-06
6.5674e-06
6.5918e-06
6.5674e-06
6.5918e-06
6.543e-06
6.5918e-06
6.5674e-06
6.5918e-06
6.543e-06
6.5918e-06
6.5674e-06
6.5674e-06
6.543e-06
6.5674e-06
6.543e-06
6.5918e-06
6.543e-06
6.5918e-06
6.5674e-06
6.5918e-06
6.543e-06
6.5674e-06
6.543e-06
6.5674e-06
6.543e-06
6.5918e-06
6.543e-06
6.5674e-06
6.543e-06
6.5918e-06
6.543e-06
6.5674e-06
6.543e-06
6.5674e-06
6.543e-06
6.5674e-06
6.543e-06
6.5674e-06
6.543e-06
6.5674e-06
6.543e-06
6.5918e-06
6.543e-06
6.5674e-06
6.543e-06
6.5674e-06
6.543e-06
6.5674e-06
6.543e-06
6.5674e-06
6.543e-06
6.5674e-06
6.543e-06
6.5674e-06
6.543e-06
6.5674e-06
6.543e-06
6.5674e-06
6.543e-06
6.5674e-06
6.543e-06
6.5674e-06
6.543e-06
6.5674e-06
6.543e-06
6.5674e-06
6.543e-06
6.5674e-06
6.543e-06
6.5674e-06
6.543e-06
6.5674e-06
6.5186e-06
6.5674e-06
6.543e-06
6.5674e-06
6.543e-06
6.5674e-06
6.543e-06
6.5674e-06
6.543e-06
6.5674e-06
6.543e-06
6.5674e-06
6.543e-06
6.543e-06
6.543e-06
6.5674e-06
6.543e-06
6.5674e-06
6.543e-06
6.543e-06
6.5186e-06
6.543e-06
6.543e-06
6.543e-06
6.543e-06
6.543e-06
6.5186e-06
6.543e-06
6.5186e-06
6.5674e-06
6.5186e-06
6.543e-06
6.5186e-06
6.543e-06
6.5186e-06
6.543e-06
6.5186e-06
6.543e-06
6.5186e-06
6.543e-06
6.543e-06
6.543e-06
6.5186e-06
6.543e-06
6.5186e-06
6.543e-06
6.5186e-06
6.543e-06
6.5186e-06
6.543e-06
6.5186e-06
6.543e-06
6.543e-06
6.543e-06
6.5186e-06
6.543e-06
6.5186e-06
6.543e-06
6.5186e-06
6.543e-06
6.5186e-06
6.543e-06
6.5186e-06
6.543e-06
6.5186e-06
6.543e-06
6.5186e-06
6.543e-06
6.5186e-06
6.543e-06
6.5186e-06
6.543e-06
6.5186e-06
6.543e-06
6.5186e-06
6.543e-06
6.5186e-06
6.543e-06
6.5186e-06
6.543e-06
6.5186e-06
6.5674e-06
6.5186e-06
6.543e-06
6.5186e-06
6.543e-06
6.5186e-06
6.543e-06
6.5186e-06
6.543e-06
6.5186e-06
6.543e-06
6.5186e-06
6.543e-06
6.4941e-06
6.543e-06
6.5186e-06
6.543e-06
6.5186e-06
6.5186e-06
6.5186e-06
6.543e-06
6.5186e-06
6.543e-06
6.5186e-06
6.543e-06
6.5186e-06
6.543e-06
6.5186e-06
6.5186e-06
6.5186e-06
6.5186e-06
6.5186e-06
6.543e-06
6.4941e-06
6.543e-06
6.5186e-06
6.5186e-06
6.5186e-06
6.5186e-06
6.5186e-06
6.543e-06
6.4941e-06
6.543e-06
6.4941e-06
6.5186e-06
6.4941e-06
6.543e-06
6.4941e-06
6.543e-06
6.5186e-06
6.543e-06
6.4941e-06
6.5186e-06
6.5186e-06
6.5186e-06
6.4941e-06
6.543e-06
6.5186e-06
6.543e-06
6.4941e-06
6.543e-06
6.4941e-06
6.5186e-06
6.4941e-06
6.5186e-06
6.5186e-06
6.5186e-06
6.4941e-06
6.543e-06
6.4941e-06
6.5186e-06
6.4941e-06
6.543e-06
6.5186e-06
6.5186e-06
6.4941e-06
6.5186e-06
6.4941e-06
6.5186e-06
6.5186e-06
6.543e-06
6.4941e-06
6.5186e-06
6.4941e-06
6.5186e-06
6.4941e-06
6.5186e-06
6.4941e-06
6.5186e-06
6.4941e-06
6.5186e-06
6.4941e-06
6.5186e-06
6.4941e-06
6.5186e-06
6.4941e-06
6.5186e-06
6.4941e-06
6.5186e-06
6.4941e-06
6.543e-06
6.4941e-06
6.5186e-06
6.4941e-06
6.5186e-06
6.4941e-06
6.5186e-06
6.4941e-06
6.5186e-06
6.4941e-06
6.5186e-06
6.4941e-06
6.5186e-06
6.4941e-06
6.5186e-06
6.4941e-06
6.5186e-06
6.4941e-06
6.5186e-06
6.4941e-06
6.5186e-06
6.4941e-06
6.5186e-06
6.4941e-06
6.5186e-06
6.4941e-06
6.5186e-06
6.4941e-06
6.5186e-06
6.4697e-06
6.5186e-06
6.4941e-06
6.5186e-06
6.4941e-06
6.5186e-06
6.4941e-06
6.5186e-06
6.4941e-06
6.5186e-06
6.4941e-06
6.5186e-06
6.4941e-06
6.5186e-06
6.4941e-06
6.5186e-06
6.4697e-06
6.5186e-06
6.4941e-06
6.5186e-06
6.4697e-06
6.5186e-06
6.4941e-06
6.5186e-06
6.4941e-06
6.5186e-06
6.4697e-06
6.5186e-06
6.4941e-06
6.5186e-06
6.4941e-06
6.5186e-06
6.4697e-06
6.5186e-06
6.4697e-06
6.5186e-06
6.4697e-06
6.5186e-06
6.4697e-06
6.5186e-06
6.4941e-06
6.5186e-06
6.4697e-06
6.5186e-06
6.4697e-06
6.5186e-06
6.4697e-06
6.5186e-06
6.4941e-06
6.5186e-06
6.4941e-06
6.5186e-06
6.4697e-06
6.4941e-06
6.4941e-06
6.5186e-06
6.4697e-06
6.5186e-06
6.4697e-06
6.5186e-06
6.4697e-06
6.5186e-06
6.4697e-06
6.5186e-06
6.4697e-06
6.5186e-06
6.4697e-06
6.5186e-06
6.4697e-06
6.5186e-06
6.4697e-06
6.5186e-06
6.4697e-06
6.4941e-06
6.4697e-06
6.5186e-06
6.4697e-06
6.4941e-06
6.4697e-06
6.5186e-06
6.4697e-06
6.4941e-06
6.4697e-06
6.5186e-06
6.4697e-06
6.4941e-06
6.4697e-06
6.5186e-06
6.4697e-06
6.4941e-06
6.4697e-06
6.5186e-06
6.4697e-06
6.4941e-06
6.4697e-06
6.4941e-06
6.4697e-06
6.4941e-06
6.4697e-06
6.4941e-06
6.4697e-06
6.4941e-06
6.4697e-06
6.4941e-06
6.4697e-06
6.4941e-06
6.4697e-06
6.4941e-06
6.4697e-06
6.4941e-06
6.4697e-06
6.4941e-06
6.4697e-06
6.4941e-06
6.4697e-06
6.4941e-06
6.4697e-06
6.4941e-06
6.4697e-06
6.4941e-06
6.4697e-06
6.4941e-06
6.4697e-06
6.4941e-06
6.4697e-06
6.4941e-06
6.4697e-06
6.4941e-06
6.4697e-06
6.4941e-06
6.4697e-06
6.4941e-06
6.4697e-06
6.4941e-06
6.4697e-06
6.4941e-06
6.4697e-06
6.4941e-06
6.4697e-06
6.4941e-06
6.4697e-06
6.4941e-06
6.4697e-06
6.4941e-06
6.4697e-06
6.4941e-06
6.4697e-06
6.4941e-06
6.4697e-06
6.4941e-06
6.4697e-06
6.4941e-06
6.4697e-06
6.4941e-06
6.4697e-06
6.4941e-06
6.4697e-06
6.4941e-06
6.4697e-06
6.5186e-06
6.4697e-06
6.4941e-06
6.4697e-06
6.4941e-06
6.4697e-06
6.5186e-06
6.4697e-06
6.4941e-06
6.4697e-06
6.5186e-06
6.4697e-06
6.4941e-06
6.4941e-06
6.5186e-06
6.4941e-06
6.5186e-06
6.4941e-06
6.5186e-06
6.4941e-06
6.5186e-06
6.4941e-06
6.5186e-06
6.4941e-06
6.5186e-06
6.4941e-06
6.5186e-06
6.4941e-06
6.5186e-06
6.4941e-06
6.5186e-06
6.4941e-06
6.5186e-06
6.4941e-06
6.5186e-06
6.4941e-06
6.543e-06
6.4941e-06
6.543e-06
6.4941e-06
6.5186e-06
6.5186e-06
6.543e-06
6.5186e-06
6.543e-06
6.5186e-06
6.543e-06
6.5186e-06
6.543e-06
6.5186e-06
6.543e-06
6.5186e-06
6.543e-06
6.5186e-06
6.543e-06
6.5186e-06
6.543e-06
6.5186e-06
6.543e-06
6.5186e-06
6.543e-06
6.5186e-06
6.543e-06
6.5186e-06
6.5674e-06
6.543e-06
6.5674e-06
6.5186e-06
6.543e-06
6.543e-06
6.543e-06
6.543e-06
6.5674e-06
6.5186e-06
6.5674e-06
6.543e-06
6.5674e-06
6.543e-06
6.5674e-06
6.543e-06
6.5674e-06
6.543e-06
6.5674e-06
6.543e-06
6.5674e-06
6.543e-06
6.5674e-06
6.543e-06
6.5674e-06
6.543e-06
6.5674e-06
6.543e-06
6.5674e-06
6.543e-06
6.5674e-06
6.543e-06
6.5674e-06
6.543e-06
6.5674e-06
6.543e-06
6.5674e-06
6.543e-06
6.5674e-06
6.543e-06
6.5674e-06
6.543e-06
6.5674e-06
6.543e-06
6.5674e-06
6.543e-06
6.5674e-06
6.543e-06
6.5674e-06
6.543e-06
6.5674e-06
6.543e-06
6.5674e-06
6.543e-06
6.5674e-06
6.543e-06
6.5674e-06
6.543e-06
6.5674e-06
6.543e-06
6.5918e-06
6.543e-06
6.5674e-06
6.543e-06
6.5674e-06
6.543e-06
6.5674e-06
6.543e-06
6.5674e-06
6.543e-06
6.5674e-06
6.543e-06
6.5674e-06
6.543e-06
6.5674e-06
6.543e-06
6.5674e-06
6.543e-06
6.5674e-06
6.543e-06
6.5674e-06
6.543e-06
6.5674e-06
6.543e-06
6.5674e-06
6.543e-06
6.5674e-06
6.543e-06
6.5674e-06
6.543e-06
6.5674e-06
6.543e-06
6.5674e-06
6.543e-06
6.5674e-06
6.543e-06
6.5674e-06
6.543e-06
6.5674e-06
6.543e-06
6.5674e-06
6.543e-06
6.5674e-06
6.543e-06
6.5674e-06
6.543e-06
6.543e-06
6.543e-06
6.543e-06
6.543e-06
6.543e-06
6.543e-06
6.543e-06
6.543e-06
6.543e-06
6.543e-06
6.543e-06
6.5186e-06
6.543e-06
6.543e-06
6.543e-06
6.543e-06
6.543e-06
6.5186e-06
6.543e-06
6.5186e-06
6.543e-06
6.543e-06
6.543e-06
6.5186e-06
6.543e-06
6.5186e-06
6.543e-06
6.5186e-06
6.543e-06
6.5186e-06
6.543e-06
6.5186e-06
6.543e-06
6.5186e-06
6.543e-06
6.5186e-06
6.543e-06
6.5186e-06
6.543e-06
6.5186e-06
6.543e-06
6.5186e-06
6.543e-06
6.5186e-06
6.543e-06
6.5186e-06
6.543e-06
6.4941e-06
6.543e-06
6.5186e-06
6.543e-06
6.4941e-06
6.543e-06
6.5186e-06
6.543e-06
6.4941e-06
6.543e-06
6.4941e-06
6.5186e-06
6.4941e-06
6.5186e-06
6.4941e-06
6.543e-06
6.4941e-06
6.5186e-06
6.4941e-06
6.5186e-06
6.4941e-06
6.5186e-06
6.4941e-06
6.5186e-06
6.4697e-06
6.5186e-06
6.4941e-06
6.5186e-06
6.4941e-06
6.5186e-06
6.4941e-06
6.5186e-06
6.4941e-06
6.5186e-06
6.4941e-06
6.5186e-06
6.4941e-06
6.5186e-06
6.4941e-06
6.5186e-06
6.4941e-06
6.5186e-06
6.4941e-06
6.5186e-06
6.4941e-06
6.5186e-06
6.4941e-06
6.5186e-06
6.4697e-06
6.5186e-06
6.4697e-06
6.5186e-06
6.4697e-06
6.5186e-06
6.4697e-06
6.5186e-06
6.4697e-06
6.4941e-06
6.4941e-06
6.5186e-06
6.4697e-06
6.4941e-06
6.4697e-06
6.5186e-06
6.4941e-06
6.4941e-06
6.4697e-06
6.4941e-06
6.4697e-06
6.4941e-06
6.4697e-06
6.4941e-06
6.4697e-06
6.4941e-06
6.4697e-06
6.4941e-06
6.4697e-06
6.4941e-06
6.4697e-06
6.5186e-06
6.4453e-06
6.4941e-06
6.4697e-06
6.5186e-06
6.4697e-06
6.4941e-06
6.4697e-06
6.5186e-06
6.4697e-06
6.4941e-06
6.4453e-06
6.4941e-06
6.4697e-06
6.4941e-06
6.4453e-06
6.4941e-06
6.4453e-06
6.4941e-06
6.4453e-06
6.4941e-06
6.4697e-06
6.4941e-06
6.4697e-06
6.4941e-06
6.4697e-06
6.4941e-06
6.4453e-06
6.4941e-06
6.4453e-06
6.4697e-06
6.4697e-06
6.4941e-06
6.4697e-06
6.4941e-06
6.4453e-06
6.4941e-06
6.4697e-06
6.4941e-06
6.4453e-06
6.4941e-06
6.4697e-06
6.4941e-06
6.4697e-06
6.4941e-06
6.4453e-06
6.4941e-06
6.4453e-06
6.5186e-06
6.4453e-06
6.4941e-06
6.4453e-06
6.4941e-06
6.4453e-06
6.4941e-06
6.4697e-06
6.4697e-06
6.4697e-06
6.4941e-06
6.4697e-06
6.4941e-06
6.4697e-06
6.4941e-06
6.4697e-06
6.4941e-06
6.4697e-06
6.4941e-06
6.4697e-06
6.4697e-06
6.4697e-06
6.4941e-06
6.4697e-06
6.4697e-06
6.4697e-06
6.4941e-06
6.4697e-06
6.4941e-06
6.4453e-06
6.4941e-06
6.4697e-06
6.4941e-06
6.4697e-06
6.4941e-06
6.4697e-06
6.4941e-06
6.4697e-06
6.4941e-06
6.4697e-06
6.4941e-06
6.4697e-06
6.4941e-06
6.4697e-06
6.4941e-06
6.4697e-06
6.4697e-06
6.4697e-06
6.4941e-06
6.4697e-06
6.4941e-06
6.4697e-06
6.4941e-06
6.4453e-06
6.4941e-06
6.4697e-06
6.4941e-06
6.4697e-06
6.4941e-06
6.4697e-06
6.4941e-06
6.4453e-06
6.4941e-06
6.4697e-06
6.4941e-06
6.4697e-06
6.4697e-06
6.4697e-06
6.4697e-06
6.4453e-06
6.4941e-06
6.4697e-06
6.4697e-06
6.4697e-06
6.4697e-06
6.4697e-06
6.4941e-06
6.4697e-06
6.4697e-06
6.4697e-06
6.4697e-06
6.4697e-06
6.4697e-06
6.4453e-06
6.4941e-06
6.4697e-06
6.4941e-06
6.4697e-06
6.4941e-06
6.4697e-06
6.4697e-06
6.4697e-06
6.4697e-06
6.4697e-06
6.4697e-06
6.4453e-06
6.4697e-06
6.4697e-06
6.4697e-06
6.4697e-06
6.4697e-06
6.4697e-06
6.4697e-06
6.4697e-06
6.4697e-06
6.4697e-06
6.4697e-06
6.4697e-06
6.4697e-06
6.4697e-06
6.4697e-06
6.4697e-06
6.4697e-06
6.4453e-06
6.4697e-06
6.4697e-06
6.4697e-06
6.4453e-06
6.4697e-06
6.4453e-06
6.4697e-06
6.4453e-06
6.4697e-06
6.4453e-06
6.4697e-06
6.4697e-06
6.4697e-06
6.4453e-06
6.4697e-06
6.4453e-06
6.4697e-06
6.4453e-06
6.4697e-06
6.4453e-06
6.4697e-06
6.4453e-06
6.4697e-06
6.4453e-06
6.4697e-06
6.4453e-06
6.4697e-06
6.4453e-06
6.4697e-06
6.4453e-06
6.4697e-06
6.4453e-06
6.4697e-06
6.4453e-06
6.4697e-06
6.4453e-06
6.4697e-06
6.4453e-06
6.4697e-06
6.4209e-06
6.4453e-06
6.4453e-06
6.4697e-06
6.4453e-06
6.4453e-06
6.4453e-06
6.4697e-06
6.4453e-06
6.4453e-06
6.4453e-06
6.4697e-06
6.4453e-06
6.4697e-06
6.4453e-06
6.4697e-06
6.4453e-06
6.4697e-06
6.4453e-06
6.4697e-06
6.4453e-06
6.4453e-06
6.4453e-06
6.4697e-06
6.4209e-06
6.4453e-06
6.4209e-06
6.4697e-06
6.4209e-06
6.4453e-06
6.4453e-06
6.4697e-06
6.4209e-06
6.4453e-06
6.4209e-06
6.4453e-06
6.4209e-06
6.4453e-06
6.4209e-06
6.4453e-06
6.4209e-06
6.4453e-06
6.4209e-06
6.4453e-06
6.4209e-06
6.4453e-06
6.4209e-06
6.4453e-06
6.4209e-06
6.4453e-06
6.4209e-06
6.4453e-06
6.4209e-06
6.4453e-06
6.4209e-06
6.4453e-06
6.4209e-06
6.4453e-06
6.4209e-06
6.4453e-06
6.4209e-06
6.4453e-06
6.4209e-06
6.4453e-06
6.4209e-06
6.4209e-06
6.4209e-06
6.4453e-06
6.4209e-06
6.4209e-06
6.4209e-06
6.4453e-06
6.4209e-06
6.4453e-06
6.4209e-06
6.4453e-06
6.4209e-06
6.4453e-06
6.4209e-06
6.4453e-06
6.4209e-06
6.4209e-06
6.4209e-06
6.4209e-06
6.4209e-06
6.4209e-06
6.4209e-06
6.4209e-06
6.4209e-06
6.4209e-06
6.4209e-06
6.4453e-06
6.4209e-06
6.4209e-06
6.4209e-06
6.4209e-06
6.4209e-06
6.4209e-06
6.4209e-06
6.4209e-06
6.4209e-06
6.4209e-06
6.4209e-06
6.4453e-06
6.4209e-06
6.4209e-06
6.4209e-06
6.4209e-06
6.4209e-06
6.4209e-06
6.4209e-06
6.4209e-06
6.4209e-06
6.4209e-06
6.4209e-06
6.4209e-06
6.4209e-06
6.4209e-06
6.4209e-06
6.4209e-06
6.3965e-06
6.4453e-06
6.3965e-06
6.4209e-06
6.4209e-06
6.4209e-06
6.4209e-06
6.4209e-06
6.3965e-06
6.4209e-06
6.4209e-06
6.4453e-06
6.4209e-06
6.4209e-06
6.4209e-06
6.4209e-06
6.4209e-06
6.4209e-06
6.3965e-06
6.4209e-06
6.4209e-06
6.4209e-06
6.4209e-06
6.4209e-06
6.4209e-06
6.4209e-06
6.4209e-06
6.4209e-06
6.4209e-06
6.4209e-06
6.4209e-06
6.4209e-06
6.4209e-06
6.4209e-06
6.4209e-06
6.4209e-06
6.3965e-06
6.4209e-06
6.3965e-06
6.4209e-06
6.4209e-06
6.4209e-06
6.3965e-06
6.4209e-06
6.4209e-06
6.4209e-06
6.4209e-06
6.4209e-06
6.3965e-06
6.4209e-06
6.4209e-06
6.4209e-06
6.4209e-06
6.4209e-06
6.4209e-06
6.4209e-06
6.4209e-06
6.4209e-06
6.4209e-06
6.4209e-06
6.4209e-06
6.4209e-06
6.4209e-06
6.4209e-06
6.3965e-06
6.4209e-06
6.4209e-06
6.4209e-06
6.4209e-06
6.4209e-06
6.4209e-06
6.4209e-06
6.3965e-06
6.4209e-06
6.4209e-06
6.4209e-06
6.4209e-06
6.4209e-06
6.4209e-06
6.4209e-06
6.4209e-06
6.4209e-06
6.3965e-06
6.4209e-06
6.3965e-06
6.4209e-06
6.3965e-06
6.4209e-06
6.3965e-06
6.4209e-06
6.4209e-06
6.4209e-06
6.3965e-06
6.4209e-06
6.4209e-06
6.4209e-06
6.4209e-06
6.4209e-06
6.3965e-06
6.4209e-06
6.4209e-06
6.4209e-06
6.3965e-06
6.4209e-06
6.4209e-06
6.4209e-06
6.3965e-06
6.4209e-06
6.3965e-06
6.4209e-06
6.3965e-06
6.4209e-06
6.3965e-06
6.4209e-06
6.4209e-06
6.4209e-06
6.3965e-06
6.3965e-06
6.4209e-06
6.4209e-06
6.3965e-06
6.4209e-06
6.3965e-06
6.4209e-06
6.3965e-06
6.3965e-06
6.3965e-06
6.4209e-06
6.3965e-06
6.4209e-06
6.3965e-06
6.4209e-06
6.3965e-06
6.3965e-06
6.3965e-06
6.4209e-06
6.3965e-06
6.4209e-06
6.3965e-06
6.4209e-06
6.3965e-06
6.4209e-06
6.3965e-06
6.4209e-06
6.3965e-06
6.3965e-06
6.3965e-06
6.4209e-06
6.3965e-06
6.3965e-06
6.3965e-06
6.4209e-06
6.3965e-06
6.4209e-06
6.3965e-06
6.3965e-06
6.3965e-06
6.4209e-06
6.3965e-06
6.4209e-06
6.3721e-06
6.3965e-06
6.3965e-06
6.4209e-06
6.3965e-06
6.3965e-06
6.3965e-06
6.3965e-06
6.3965e-06
6.3965e-06
6.3965e-06
6.4209e-06
6.3965e-06
6.3965e-06
6.3965e-06
6.3965e-06
6.3965e-06
6.3965e-06
6.3965e-06
6.3965e-06
6.3965e-06
6.3965e-06
6.3721e-06
6.3965e-06
6.3965e-06
6.3965e-06
6.3965e-06
6.3965e-06
6.3965e-06
6.3965e-06
6.3965e-06
6.3965e-06
6.3965e-06
6.3965e-06
6.3721e-06
6.3965e-06
6.3965e-06
6.3965e-06
6.3965e-06
6.3965e-06
6.3721e-06
6.3965e-06
6.3965e-06
6.3965e-06
6.3965e-06
6.3965e-06
6.3965e-06
6.3965e-06
6.3721e-06
6.3965e-06
6.3965e-06
6.3965e-06
6.3965e-06
6.3965e-06
6.3721e-06
6.3965e-06
6.3721e-06
6.3965e-06
6.3965e-06
6.3965e-06
6.3721e-06
6.3965e-06
6.3721e-06
6.3965e-06
6.3721e-06
6.3965e-06
6.3721e-06
6.3965e-06
6.3721e-06
6.3965e-06
6.3721e-06
6.3965e-06
6.3721e-06
6.3965e-06
6.3721e-06
6.3965e-06
6.3721e-06
6.3721e-06
6.3721e-06
6.3965e-06
6.3721e-06
6.3965e-06
6.3965e-06
6.3721e-06
6.3721e-06
6.3965e-06
6.3721e-06
6.3965e-06
6.3721e-06
6.3965e-06
6.3721e-06
6.3721e-06
6.3721e-06
6.3965e-06
6.3721e-06
6.3721e-06
6.3721e-06
6.3721e-06
6.3721e-06
6.3721e-06
6.3721e-06
6.3721e-06
6.3721e-06
6.3721e-06
6.3721e-06
6.3721e-06
6.3721e-06
6.3721e-06
6.3721e-06
6.3721e-06
6.3721e-06
6.3721e-06
6.3721e-06
6.3721e-06
6.3721e-06
6.3721e-06
6.3477e-06
6.3721e-06
6.3721e-06
6.3721e-06
6.3721e-06
6.3721e-06
6.3721e-06
6.3721e-06
6.3721e-06
6.3721e-06
6.3721e-06
6.3721e-06
6.3721e-06
6.3721e-06
6.3721e-06
6.3721e-06
6.3721e-06
6.3721e-06
6.3721e-06
6.3721e-06
6.3721e-06
6.3721e-06
6.3721e-06
6.3721e-06
6.3721e-06
6.3721e-06
6.3721e-06
6.3721e-06
6.3721e-06
6.3721e-06
6.3721e-06
6.3721e-06
6.3721e-06
6.3721e-06
6.3721e-06
6.3721e-06
6.3477e-06
6.3721e-06
6.3721e-06
6.3721e-06
6.3477e-06
6.3721e-06
6.3721e-06
6.3721e-06
6.3721e-06
6.3721e-06
6.3721e-06
6.3721e-06
6.3721e-06
6.3721e-06
6.3477e-06
6.3477e-06
6.3721e-06
6.3721e-06
6.3721e-06
6.3721e-06
6.3477e-06
6.3721e-06
6.3721e-06
6.3477e-06
6.3477e-06
6.3721e-06
6.3477e-06
6.3477e-06
6.3477e-06
6.3721e-06
6.3477e-06
6.3721e-06
6.3721e-06
6.3477e-06
6.3477e-06
6.3721e-06
6.3477e-06
6.3477e-06
6.3477e-06
6.3721e-06
6.3477e-06
6.3477e-06
6.3477e-06
6.3477e-06
6.3477e-06
6.3477e-06
6.3477e-06
6.3477e-06
6.3477e-06
6.3477e-06
6.3477e-06
6.3721e-06
6.3477e-06
6.3477e-06
6.3477e-06
6.3477e-06
6.3477e-06
6.3477e-06
6.3477e-06
6.3477e-06
6.3477e-06
6.3477e-06
6.3477e-06
6.3721e-06
6.3477e-06
6.3477e-06
6.3477e-06
6.3477e-06
6.3477e-06
6.3477e-06
6.3477e-06
6.3477e-06
6.3477e-06
6.3477e-06
6.3477e-06
6.3477e-06
6.3477e-06
6.3477e-06
6.3477e-06
6.3477e-06
6.3477e-06
6.3477e-06
6.3477e-06
6.3477e-06
6.3477e-06
6.3477e-06
6.3477e-06
6.3477e-06
6.3477e-06
6.3477e-06
6.3477e-06
6.3477e-06
6.3477e-06
6.3477e-06
6.3477e-06
6.3477e-06
6.3477e-06
6.3477e-06
6.3477e-06
6.3477e-06
6.3232e-06
6.3477e-06
6.3477e-06
6.3477e-06
6.3477e-06
6.3477e-06
6.3477e-06
6.3477e-06
6.3477e-06
6.3477e-06
6.3477e-06
6.3477e-06
6.3477e-06
6.3477e-06
6.3477e-06
6.3477e-06
6.3477e-06
6.3477e-06
6.3477e-06
6.3477e-06
6.3477e-06
6.3477e-06
6.3477e-06
6.3477e-06
6.3477e-06
6.3477e-06
6.3477e-06
6.3477e-06
6.3477e-06
6.3477e-06
6.3477e-06
6.3477e-06
6.3477e-06
6.3232e-06
6.3477e-06
6.3477e-06
6.3232e-06
6.3477e-06
6.3232e-06
6.3477e-06
6.3232e-06
6.3232e-06
6.3477e-06
6.3477e-06
6.3232e-06
6.3477e-06
6.3232e-06
6.3477e-06
6.3477e-06
6.3232e-06
6.3232e-06
6.3232e-06
6.3477e-06
6.3232e-06
6.3232e-06
6.3232e-06
6.3477e-06
6.3232e-06
6.3232e-06
6.3232e-06
6.3477e-06
6.3232e-06
6.3232e-06
6.3232e-06
6.3477e-06
6.3232e-06
6.3232e-06
6.3232e-06
6.3232e-06
6.3232e-06
6.3232e-06
6.3232e-06
6.3232e-06
6.3232e-06
6.3232e-06
6.3232e-06
6.3232e-06
6.3232e-06
6.3232e-06
6.3232e-06
6.3232e-06
6.3232e-06
6.3232e-06
6.3232e-06
6.3477e-06
6.3232e-06
6.3232e-06
6.3232e-06
6.3232e-06
6.3232e-06
6.3232e-06
6.3232e-06
6.3232e-06
6.3232e-06
6.3232e-06
6.3232e-06
6.3232e-06
6.3232e-06
6.3232e-06
6.3232e-06
6.3232e-06
6.3232e-06
6.3232e-06
6.3232e-06
6.3232e-06
6.3232e-06
6.3232e-06
6.3232e-06
6.3232e-06
6.3232e-06
6.3232e-06
6.3232e-06
6.3232e-06
6.3232e-06
6.3232e-06
6.3232e-06
6.3232e-06
6.3232e-06
6.3232e-06
6.3232e-06
6.3232e-06
6.3232e-06
6.3232e-06
6.3232e-06
6.3232e-06
6.3232e-06
6.3232e-06
6.3232e-06
6.3232e-06
6.3232e-06
6.3232e-06
6.3232e-06
6.3232e-06
6.3232e-06
6.3232e-06
6.3232e-06
6.3232e-06
6.3232e-06
6.3232e-06
6.3232e-06
6.3232e-06
6.3232e-06
6.3232e-06
6.3232e-06
6.3232e-06
6.3232e-06
6.3232e-06
6.3232e-06
6.3232e-06
6.3232e-06
6.3232e-06
6.3232e-06
6.3232e-06
6.3232e-06
6.3232e-06
6.3232e-06
6.3232e-06
6.3232e-06
6.3232e-06
6.3232e-06
6.3232e-06
6.3232e-06
6.3232e-06
6.3232e-06
6.3232e-06
6.3232e-06
6.3232e-06
6.3232e-06
6.3232e-06
6.3232e-06
6.3232e-06
6.3232e-06
6.3232e-06
6.2988e-06
6.3232e-06
6.3232e-06
6.3232e-06
6.3232e-06
6.3232e-06
6.3232e-06
6.3232e-06
6.3232e-06
6.3232e-06
6.3232e-06
6.3232e-06
6.3232e-06
6.3232e-06
6.2988e-06
6.3232e-06
6.3232e-06
6.3232e-06
6.3232e-06
6.3232e-06
6.3232e-06
6.3232e-06
6.3232e-06
6.3232e-06
6.3232e-06
6.3232e-06
6.2988e-06
6.3232e-06
6.2988e-06
6.3232e-06
6.2988e-06
6.3232e-06
6.2988e-06
6.3232e-06
6.3232e-06
6.2988e-06
6.3232e-06
6.3232e-06
6.2988e-06
6.3232e-06
6.3232e-06
6.3232e-06
6.2988e-06
6.2988e-06
6.3232e-06
6.3232e-06
6.3232e-06
6.3232e-06
6.2988e-06
6.3232e-06
6.2988e-06
6.2988e-06
6.2988e-06
6.3232e-06
6.3232e-06
6.2988e-06
6.2988e-06
6.2988e-06
6.2988e-06
6.2988e-06
6.2988e-06
6.3232e-06
6.2988e-06
6.2988e-06
6.2988e-06
6.2988e-06
6.2988e-06
6.3232e-06
6.2988e-06
6.3232e-06
6.2988e-06
6.2988e-06
6.2988e-06
6.2988e-06
6.2988e-06
6.2988e-06
6.2988e-06
6.3232e-06
6.2988e-06
6.2988e-06
6.2988e-06
6.2988e-06
6.2988e-06
6.2988e-06
6.2988e-06
6.2988e-06
6.2988e-06
6.2988e-06
6.2988e-06
6.2988e-06
6.2988e-06
6.2988e-06
6.2988e-06
6.2988e-06
6.2988e-06
6.2988e-06
6.2988e-06
6.2988e-06
6.2988e-06
6.2988e-06
6.2988e-06
6.2988e-06
6.2988e-06
6.2988e-06
6.2744e-06
6.2988e-06
6.2988e-06
6.2988e-06
6.2988e-06
6.2988e-06
6.2988e-06
6.2988e-06
6.2988e-06
6.2988e-06
6.2988e-06
6.2988e-06
6.2988e-06
6.2988e-06
6.2988e-06
6.2988e-06
6.2988e-06
6.2988e-06
6.2988e-06
6.2988e-06
6.2744e-06
6.2988e-06
6.2988e-06
6.2988e-06
6.2744e-06
6.2988e-06
6.2988e-06
6.2988e-06
6.2988e-06
6.2988e-06
6.2988e-06
6.2988e-06
6.2988e-06
6.2988e-06
6.2988e-06
6.2988e-06
6.2988e-06
6.2988e-06
6.2988e-06
6.2988e-06
6.2988e-06
6.2988e-06
6.2988e-06
6.2988e-06
6.2988e-06
6.2988e-06
6.2988e-06
6.2988e-06
6.2988e-06
6.2988e-06
6.2988e-06
6.2988e-06
6.2744e-06
6.2744e-06
6.2988e-06
6.2988e-06
6.2988e-06
6.2988e-06
6.2988e-06
6.2988e-06
6.2744e-06
6.2988e-06
6.2744e-06
6.2988e-06
6.2744e-06
6.2988e-06
6.2988e-06
6.2988e-06
6.2988e-06
6.2988e-06
6.2744e-06
6.2988e-06
6.2744e-06
6.2988e-06
6.2988e-06
6.2988e-06
6.2744e-06
6.2744e-06
6.2988e-06
6.2988e-06
6.2744e-06
6.2988e-06
6.2744e-06
6.2744e-06
6.2744e-06
6.2988e-06
6.2744e-06
6.2744e-06
6.2744e-06
6.2988e-06
6.2744e-06
6.2744e-06
6.2988e-06
6.2744e-06
6.2744e-06
6.2988e-06
6.2744e-06
6.2744e-06
6.2744e-06
6.2744e-06
6.2744e-06
6.2988e-06
6.2744e-06
6.2988e-06
6.2744e-06
6.2988e-06
6.2988e-06
6.2744e-06
6.2744e-06
6.2988e-06
6.2744e-06
6.2744e-06
6.2744e-06
6.2744e-06
6.2744e-06
6.2988e-06
6.2744e-06
6.2988e-06
6.2744e-06
6.2744e-06
6.2744e-06
6.2744e-06
6.2744e-06
6.2744e-06
6.2744e-06
6.2744e-06
6.2744e-06
6.2744e-06
6.2744e-06
6.2744e-06
6.2744e-06
6.2744e-06
6.2744e-06
6.2744e-06
6.2744e-06
6.2744e-06
6.2744e-06
6.2988e-06
6.2744e-06
6.2744e-06
6.2744e-06
6.2744e-06
6.2744e-06
6.2744e-06
6.2744e-06
6.2744e-06
6.2744e-06
6.2744e-06
6.2744e-06
6.2744e-06
6.2744e-06
6.2744e-06
6.2744e-06
6.2744e-06
6.2744e-06
6.2744e-06
6.2744e-06
6.2744e-06
6.2744e-06
6.2744e-06
6.2744e-06
6.2744e-06
6.2744e-06
6.2744e-06
6.2744e-06
6.2744e-06
6.2744e-06
6.2744e-06
6.2744e-06
6.2744e-06
6.2744e-06
6.2744e-06
6.25e-06
6.2744e-06
6.2744e-06
6.2744e-06
6.2744e-06
6.2744e-06
6.2744e-06
6.2744e-06
6.2744e-06
6.2744e-06
6.2744e-06
6.2744e-06
6.2744e-06
6.2744e-06
6.2744e-06
6.2744e-06
6.25e-06
6.2744e-06
6.2744e-06
6.2744e-06
6.2744e-06
6.2744e-06
6.2744e-06
6.2744e-06
6.2744e-06
6.2744e-06
6.2744e-06
6.2744e-06
6.2744e-06
6.2744e-06
6.2744e-06
6.2744e-06
6.25e-06
6.2744e-06
6.25e-06
6.2744e-06
6.25e-06
6.2744e-06
6.25e-06
6.2744e-06
6.25e-06
6.2744e-06
6.2744e-06
6.2744e-06
6.25e-06
6.2744e-06
6.2744e-06
6.2744e-06
6.25e-06
6.2744e-06
6.25e-06
6.2744e-06
6.25e-06
6.2744e-06
6.2744e-06
6.2744e-06
6.25e-06
6.2744e-06
6.25e-06
6.2744e-06
6.25e-06
6.2744e-06
6.2744e-06
6.2744e-06
6.25e-06
6.2744e-06
6.25e-06
6.2744e-06
6.25e-06
6.2744e-06
6.25e-06
6.2744e-06
6.25e-06
6.2744e-06
6.25e-06
6.2744e-06
6.25e-06
6.2744e-06
6.25e-06
6.25e-06
6.25e-06
6.2744e-06
6.25e-06
6.2744e-06
6.25e-06
6.2744e-06
6.25e-06
6.25e-06
6.25e-06
6.2744e-06
6.25e-06
6.25e-06
6.25e-06
6.25e-06
6.25e-06
6.25e-06
6.25e-06
6.25e-06
6.25e-06
6.25e-06
6.25e-06
6.2744e-06
6.25e-06
6.25e-06
6.25e-06
6.25e-06
6.25e-06
6.25e-06
6.25e-06
6.25e-06
6.25e-06
6.25e-06
6.25e-06
6.25e-06
6.25e-06
6.25e-06
6.25e-06
6.2744e-06
6.25e-06
6.25e-06
6.25e-06
6.25e-06
6.25e-06
6.2744e-06
6.25e-06
6.25e-06
6.25e-06
6.25e-06
6.25e-06
6.25e-06
6.25e-06
6.25e-06
6.25e-06
6.25e-06
6.25e-06
6.25e-06
6.25e-06
6.2744e-06
6.25e-06
6.25e-06
6.2256e-06
6.25e-06
6.25e-06
6.25e-06
6.25e-06
6.25e-06
6.25e-06
6.25e-06
6.25e-06
6.25e-06
6.25e-06
6.25e-06
6.25e-06
6.25e-06
6.25e-06
6.25e-06
6.25e-06
6.25e-06
6.25e-06
6.25e-06
6.2256e-06
6.25e-06
6.2256e-06
6.25e-06
6.25e-06
6.25e-06
6.25e-06
6.25e-06
6.2256e-06
6.25e-06
6.25e-06
6.25e-06
6.25e-06
6.25e-06
6.25e-06
6.25e-06
6.2256e-06
6.25e-06
6.25e-06
6.25e-06
6.2256e-06
6.25e-06
6.25e-06
6.25e-06
6.25e-06
6.25e-06
6.2256e-06
6.25e-06
6.2256e-06
6.25e-06
6.2256e-06
6.25e-06
6.2256e-06
6.25e-06
6.25e-06
6.25e-06
6.2256e-06
6.25e-06
6.25e-06
6.25e-06
6.25e-06
6.25e-06
6.25e-06
6.25e-06
6.2256e-06
6.25e-06
6.2256e-06
6.25e-06
6.2256e-06
6.25e-06
6.2256e-06
6.25e-06
6.2256e-06
6.25e-06
6.2256e-06
6.25e-06
6.2256e-06
6.25e-06
6.2256e-06
6.25e-06
6.25e-06
6.25e-06
6.2256e-06
6.25e-06
6.2256e-06
6.25e-06
6.2256e-06
6.25e-06
6.2256e-06
6.25e-06
6.2256e-06
6.25e-06
6.2256e-06
6.2256e-06
6.2256e-06
6.25e-06
6.25e-06
6.25e-06
6.25e-06
6.25e-06
6.2256e-06
6.25e-06
6.2256e-06
6.25e-06
6.2256e-06
6.25e-06
6.2256e-06
6.25e-06
6.2256e-06
6.25e-06
6.2256e-06
6.25e-06
6.2256e-06
6.25e-06
6.2256e-06
6.25e-06
6.2256e-06
6.25e-06
6.2256e-06
6.25e-06
6.2256e-06
6.25e-06
6.25e-06
6.25e-06
6.25e-06
6.25e-06
6.2256e-06
6.25e-06
6.2256e-06
6.25e-06
6.2256e-06
6.25e-06
6.2256e-06
6.25e-06
6.25e-06
6.25e-06
6.2256e-06
6.25e-06
6.25e-06
6.25e-06
6.2256e-06
6.25e-06
6.25e-06
6.25e-06
6.2256e-06
6.25e-06
6.25e-06
6.25e-06
6.2256e-06
6.25e-06
6.25e-06
6.25e-06
6.2256e-06
6.25e-06
6.2256e-06
6.2744e-06
6.2256e-06
6.25e-06
6.2256e-06
6.25e-06
6.2256e-06
6.2744e-06
6.25e-06
6.25e-06
6.25e-06
6.25e-06
6.25e-06
6.25e-06
6.25e-06
6.25e-06
6.25e-06
6.25e-06
6.25e-06
6.2744e-06
6.25e-06
6.25e-06
6.25e-06
6.25e-06
6.25e-06
6.25e-06
6.25e-06
6.2744e-06
6.25e-06
6.2744e-06
6.25e-06
6.2744e-06
6.25e-06
6.25e-06
6.25e-06
6.2744e-06
6.25e-06
6.2744e-06
6.25e-06
6.2744e-06
6.25e-06
6.2744e-06
6.25e-06
6.2744e-06
6.25e-06
6.2744e-06
6.25e-06
6.2744e-06
6.2744e-06
6.2744e-06
6.2744e-06
6.2744e-06
6.2744e-06
6.2744e-06
6.2744e-06
6.2744e-06
6.2744e-06
6.2744e-06
6.2744e-06
6.2744e-06
6.2744e-06
6.2988e-06
6.2744e-06
6.2988e-06
6.2744e-06
6.2744e-06
6.2744e-06
6.2744e-06
6.2744e-06
6.2988e-06
6.2744e-06
6.2744e-06
6.2744e-06
6.2988e-06
6.2744e-06
6.2988e-06
6.2744e-06
6.2988e-06
6.2744e-06
6.2988e-06
6.2988e-06
6.2988e-06
6.2744e-06
6.2988e-06
6.2744e-06
6.2988e-06
6.2744e-06
6.2988e-06
6.2988e-06
6.2988e-06
6.2988e-06
6.2988e-06
6.2988e-06
6.2988e-06
6.2744e-06
6.2988e-06
6.2744e-06
6.2988e-06
6.2744e-06
6.3232e-06
6.2988e-06
6.3232e-06
6.2744e-06
6.3232e-06
6.2988e-06
6.2988e-06
6.2988e-06
6.3232e-06
6.2744e-06
6.2988e-06
6.2988e-06
6.3232e-06
6.2988e-06
6.2988e-06
6.2988e-06
6.3232e-06
6.2988e-06
6.2988e-06
6.2988e-06
6.3232e-06
6.2988e-06
6.2988e-06
6.2988e-06
6.3232e-06
6.2988e-06
6.3232e-06
6.2988e-06
6.3232e-06
6.2988e-06
6.2988e-06
6.2988e-06
6.2988e-06
6.2988e-06
6.2988e-06
6.2988e-06
6.2988e-06
6.2988e-06
6.3232e-06
6.2988e-06
6.3232e-06
6.2988e-06
6.2988e-06
6.2988e-06
6.2988e-06
6.2988e-06
6.2988e-06
6.2988e-06
6.3232e-06
6.2988e-06
6.2988e-06
6.2744e-06
6.3232e-06
6.2744e-06
6.2988e-06
6.2988e-06
6.2988e-06
6.2744e-06
6.2988e-06
6.2744e-06
6.2988e-06
6.2988e-06
6.2988e-06
6.2744e-06
6.2988e-06
6.2744e-06
6.3232e-06
6.2744e-06
6.2988e-06
6.2988e-06
6.2988e-06
6.2744e-06
6.2988e-06
6.2988e-06
6.2988e-06
6.2744e-06
6.2988e-06
6.2988e-06
6.2988e-06
6.2744e-06
6.2988e-06
6.2744e-06
6.3232e-06
6.2744e-06
6.3232e-06
6.2744e-06
6.2988e-06
6.2988e-06
6.3232e-06
6.2988e-06
6.2988e-06
6.2988e-06
6.3232e-06
6.2744e-06
6.2988e-06
6.2744e-06
6.2988e-06
6.2744e-06
6.2988e-06
6.2744e-06
6.2988e-06
6.2744e-06
6.2988e-06
6.2744e-06
6.2988e-06
6.2744e-06
6.2988e-06
6.2744e-06
6.2988e-06
6.2744e-06
6.2988e-06
6.2744e-06
6.2988e-06
6.2744e-06
6.2988e-06
6.2744e-06
6.2988e-06
6.2744e-06
6.2988e-06
6.2744e-06
6.2988e-06
6.2744e-06
6.2988e-06
6.2744e-06
6.2988e-06
6.2744e-06
6.2988e-06
6.2744e-06
6.2988e-06
6.2744e-06
6.2988e-06
6.2744e-06
6.2988e-06
6.2744e-06
6.2988e-06
6.2744e-06
6.2744e-06
6.2744e-06
6.2988e-06
6.2744e-06
6.2988e-06
6.2744e-06
6.2988e-06
6.2744e-06
6.2988e-06
6.2744e-06
6.2744e-06
6.2744e-06
6.2744e-06
6.2744e-06
6.2744e-06
6.2744e-06
6.2988e-06
6.2744e-06
6.2744e-06
6.2744e-06
6.2744e-06
6.2744e-06
6.2744e-06
6.2744e-06
6.2744e-06
6.2744e-06
6.2744e-06
6.25e-06
6.2744e-06
6.25e-06
6.2744e-06
6.2744e-06
6.2744e-06
6.2744e-06
6.2744e-06
6.25e-06
6.2744e-06
6.25e-06
6.2744e-06
6.25e-06
6.2744e-06
6.25e-06
6.2744e-06
6.25e-06
6.2744e-06
6.25e-06
6.2744e-06
6.2256e-06
6.2744e-06
6.25e-06
6.2744e-06
6.25e-06
6.2744e-06
6.2256e-06
6.2744e-06
6.25e-06
6.2744e-06
6.25e-06
6.2744e-06
6.25e-06
6.2744e-06
6.2256e-06
6.2744e-06
6.2256e-06
6.2744e-06
6.2256e-06
6.2744e-06
6.2256e-06
6.2744e-06
6.25e-06
6.2744e-06
6.25e-06
6.25e-06
6.25e-06
6.25e-06
6.2256e-06
6.2744e-06
6.2256e-06
6.2744e-06
6.2256e-06
6.2744e-06
6.25e-06
6.2744e-06
6.2256e-06
6.25e-06
6.2256e-06
6.25e-06
6.2256e-06
6.25e-06
6.2256e-06
6.25e-06
6.2256e-06
6.25e-06
6.2256e-06
6.25e-06
6.2256e-06
6.25e-06
6.2256e-06
6.25e-06
6.2256e-06
6.25e-06
6.2256e-06
6.25e-06
6.2256e-06
6.25e-06
6.2256e-06
6.25e-06
6.2256e-06
6.25e-06
6.2256e-06
6.25e-06
6.2256e-06
6.25e-06
6.2256e-06
6.25e-06
6.2256e-06
6.25e-06
6.2256e-06
6.25e-06
6.2256e-06
6.25e-06
6.2256e-06
6.25e-06
6.2256e-06
6.2256e-06
6.2256e-06
6.2256e-06
6.2256e-06
6.25e-06
6.2256e-06
6.2256e-06
6.2256e-06
6.25e-06
6.2256e-06
6.2256e-06
6.2256e-06
6.25e-06
6.2256e-06
6.25e-06
6.2256e-06
6.25e-06
6.2256e-06
6.2256e-06
6.2256e-06
6.25e-06
6.2256e-06
6.2256e-06
6.2256e-06
6.2256e-06
6.2256e-06
6.2256e-06
6.2256e-06
6.2256e-06
6.2256e-06
6.2256e-06
6.2256e-06
6.2256e-06
6.2256e-06
6.2256e-06
6.2012e-06
6.25e-06
6.2256e-06
6.25e-06
6.2256e-06
6.2256e-06
6.2256e-06
6.2256e-06
6.2256e-06
6.2256e-06
6.2256e-06
6.2256e-06
6.2256e-06
6.2256e-06
6.2256e-06
6.2256e-06
6.2012e-06
6.2256e-06
6.2256e-06
6.2256e-06
6.2256e-06
6.2256e-06
6.2256e-06
6.2256e-06
6.2012e-06
6.2256e-06
6.2256e-06
6.2256e-06
6.2256e-06
6.2256e-06
6.2012e-06
6.2256e-06
6.2256e-06
6.2256e-06
6.2256e-06
6.2256e-06
6.2256e-06
6.2256e-06
6.2012e-06
6.2256e-06
6.2256e-06
6.2256e-06
6.2256e-06
6.2256e-06
6.2012e-06
6.2256e-06
6.2012e-06
6.2256e-06
6.2012e-06
6.2256e-06
6.2256e-06
6.2256e-06
6.2012e-06
6.2256e-06
6.2256e-06
6.2256e-06
6.2012e-06
6.2256e-06
6.2012e-06
6.2256e-06
6.2012e-06
6.2256e-06
6.2012e-06
6.2256e-06
6.2012e-06
6.2256e-06
6.2012e-06
6.2256e-06
6.2012e-06
6.2256e-06
6.2012e-06
6.2256e-06
6.2012e-06
6.2256e-06
6.2012e-06
6.2256e-06
6.2012e-06
6.2256e-06
6.2012e-06
6.2256e-06
6.2012e-06
6.2256e-06
6.2012e-06
6.2256e-06
6.2012e-06
6.2256e-06
6.2012e-06
6.2256e-06
6.2012e-06
6.2256e-06
6.2012e-06
6.2256e-06
6.2012e-06
6.2256e-06
6.2012e-06
6.2256e-06
6.2012e-06
6.2256e-06
6.2012e-06
6.2256e-06
6.2012e-06
6.2256e-06
6.2012e-06
6.2256e-06
6.2012e-06
6.2256e-06
6.2012e-06
6.2256e-06
6.2012e-06
6.2256e-06
6.2012e-06
6.2256e-06
6.2012e-06
6.2256e-06
6.2012e-06
6.2012e-06
6.2012e-06
6.2256e-06
6.2012e-06
6.2256e-06
6.2012e-06
6.2256e-06
6.2012e-06
6.2256e-06
6.2012e-06
6.2256e-06
6.2012e-06
6.2256e-06
6.1768e-06
6.2256e-06
6.2012e-06
6.2012e-06
6.2012e-06
6.2256e-06
6.2012e-06
6.2012e-06
6.2012e-06
6.2012e-06
6.1768e-06
6.2256e-06
6.2012e-06
6.2256e-06
6.2012e-06
6.2256e-06
6.2012e-06
6.2256e-06
6.1768e-06
6.2256e-06
6.2012e-06
6.2012e-06
6.2012e-06
6.2012e-06
6.1768e-06
6.2256e-06
6.2012e-06
6.2012e-06
6.1768e-06
6.2012e-06
6.1768e-06
6.2012e-06
6.1768e-06
6.2012e-06
6.1768e-06
6.2256e-06
6.2012e-06
6.2012e-06
6.2012e-06
6.2012e-06
6.1768e-06
6.2012e-06
6.1768e-06
6.2012e-06
6.1768e-06
6.2012e-06
6.1768e-06
6.2012e-06
6.1768e-06
6.2012e-06
6.2012e-06
6.2012e-06
6.1768e-06
6.2012e-06
6.1768e-06
6.2012e-06
6.1768e-06
6.2012e-06
6.1768e-06
6.2012e-06
6.1768e-06
6.2012e-06
6.1768e-06
6.2012e-06
6.1768e-06
6.2012e-06
6.1768e-06
6.2012e-06
6.1768e-06
6.2012e-06
6.1768e-06
6.2012e-06
6.1768e-06
6.2012e-06
6.1768e-06
6.2012e-06
6.1768e-06
6.2012e-06
6.1768e-06
6.2012e-06
6.1768e-06
6.2012e-06
6.1768e-06
6.2012e-06
6.1768e-06
6.2012e-06
6.1768e-06
6.2012e-06
6.1768e-06
6.2012e-06
6.1768e-06
6.2012e-06
6.1768e-06
6.2012e-06
6.1768e-06
6.2012e-06
6.1768e-06
6.2012e-06
6.1768e-06
6.2012e-06
6.1768e-06
6.1768e-06
6.1768e-06
6.1768e-06
6.1768e-06
6.1768e-06
6.1768e-06
6.1768e-06
6.1523e-06
6.2012e-06
6.1768e-06
6.2012e-06
6.1523e-06
6.1768e-06
6.1523e-06
6.2012e-06
6.1768e-06
6.2012e-06
6.1523e-06
6.1768e-06
6.1523e-06
6.2012e-06
6.1768e-06
6.1768e-06
6.1523e-06
6.1768e-06
6.1768e-06
6.2012e-06
6.1523e-06
6.2012e-06
6.1768e-06
6.1768e-06
6.1523e-06
6.1768e-06
6.1523e-06
6.1768e-06
6.1523e-06
6.1768e-06
6.1523e-06
6.1768e-06
6.1523e-06
6.1768e-06
6.1523e-06
6.1768e-06
6.1523e-06
6.1768e-06
6.1523e-06
6.1768e-06
6.1523e-06
6.1768e-06
6.1523e-06
6.1768e-06
6.1523e-06
6.1768e-06
6.1523e-06
6.1768e-06
6.1523e-06
6.1768e-06
6.1523e-06
6.1768e-06
6.1523e-06
6.1768e-06
6.1523e-06
6.1768e-06
6.1523e-06
6.1768e-06
6.1523e-06
6.1768e-06
6.1523e-06
6.1768e-06
6.1523e-06
6.1768e-06
6.1523e-06
6.1768e-06
6.1523e-06
6.1768e-06
6.1523e-06
6.1768e-06
6.1523e-06
6.1768e-06
6.1523e-06
6.1768e-06
6.1523e-06
6.1768e-06
6.1523e-06
6.1768e-06
6.1523e-06
6.1768e-06
6.1523e-06
6.1768e-06
6.1523e-06
6.1768e-06
6.1523e-06
6.1768e-06
6.1523e-06
6.1768e-06
6.1279e-06
6.1768e-06
6.1523e-06
6.1768e-06
6.1523e-06
6.1768e-06
6.1523e-06
6.1768e-06
6.1523e-06
6.1768e-06
6.1523e-06
6.1768e-06
6.1523e-06
6.1768e-06
6.1523e-06
6.1768e-06
6.1279e-06
6.1523e-06
6.1523e-06
6.1768e-06
6.1523e-06
6.1768e-06
6.1523e-06
6.1768e-06
6.1523e-06
6.1523e-06
6.1523e-06
6.1768e-06
6.1523e-06
6.1768e-06
6.1523e-06
6.1768e-06
6.1279e-06
6.1768e-06
6.1523e-06
6.1768e-06
6.1523e-06
6.1768e-06
6.1523e-06
6.1768e-06
6.1279e-06
6.1768e-06
6.1523e-06
6.1768e-06
6.1523e-06
6.1768e-06
6.1279e-06
6.1523e-06
6.1523e-06
6.1523e-06
6.1523e-06
6.1523e-06
6.1523e-06
6.1523e-06
6.1279e-06
6.1768e-06
6.1279e-06
6.1523e-06
6.1523e-06
6.1523e-06
6.1523e-06
6.1523e-06
6.1523e-06
6.1523e-06
6.1279e-06
6.1523e-06
6.1279e-06
6.1523e-06
6.1279e-06
6.1523e-06
6.1279e-06
6.1523e-06
6.1279e-06
6.1523e-06
6.1279e-06
6.1523e-06
6.1279e-06
6.1523e-06
6.1279e-06
6.1523e-06
6.1279e-06
6.1523e-06
6.1279e-06
6.1523e-06
6.1279e-06
6.1523e-06
6.1279e-06
6.1523e-06
6.1279e-06
6.1523e-06
6.1279e-06
6.1523e-06
6.1279e-06
6.1523e-06
6.1279e-06
6.1523e-06
6.1279e-06
6.1523e-06
6.1279e-06
6.1523e-06
6.1279e-06
6.1523e-06
6.1279e-06
6.1523e-06
6.1279e-06
6.1523e-06
6.1279e-06
6.1523e-06
6.1279e-06
6.1523e-06
6.1279e-06
6.1523e-06
6.1279e-06
6.1523e-06
6.1279e-06
6.1523e-06
6.1279e-06
6.1523e-06
6.1279e-06
6.1523e-06
6.1279e-06
6.1523e-06
6.1279e-06
6.1523e-06
6.1279e-06
6.1523e-06
6.1279e-06
6.1523e-06
6.1279e-06
6.1523e-06
6.1279e-06
6.1523e-06
6.1279e-06
6.1523e-06
6.1279e-06
6.1279e-06
6.1279e-06
6.1523e-06
6.1279e-06
6.1523e-06
6.1279e-06
6.1523e-06
6.1279e-06
6.1523e-06
6.1279e-06
6.1523e-06
6.1279e-06
6.1523e-06
6.1279e-06
6.1523e-06
6.1279e-06
6.1523e-06
6.1035e-06
6.1523e-06
6.1279e-06
6.1523e-06
6.1035e-06
6.1279e-06
6.1035e-06
6.1523e-06
6.1279e-06
6.1523e-06
6.1035e-06
6.1279e-06
6.1035e-06
6.1279e-06
6.1279e-06
6.1523e-06
6.1035e-06
6.1523e-06
6.1279e-06
6.1523e-06
6.1035e-06
6.1523e-06
6.1279e-06
6.1523e-06
6.1035e-06
6.1279e-06
6.1279e-06
6.1279e-06
6.1035e-06
6.1523e-06
6.1035e-06
6.1279e-06
6.1035e-06
6.1523e-06
6.1035e-06
6.1279e-06
6.1035e-06
6.1279e-06
6.1035e-06
6.1279e-06
6.1035e-06
6.1279e-06
6.1035e-06
6.1279e-06
6.1035e-06
6.1279e-06
6.1035e-06
6.1279e-06
6.1279e-06
6.1279e-06
6.1035e-06
6.1279e-06
6.1035e-06
6.1279e-06
6.1035e-06
6.1279e-06
6.1035e-06
6.1279e-06
6.1035e-06
6.1279e-06
6.1035e-06
6.1279e-06
6.1035e-06
6.1279e-06
6.1035e-06
6.1279e-06
6.1035e-06
6.1279e-06
6.1035e-06
6.1279e-06
6.1035e-06
6.1279e-06
6.1035e-06
6.1279e-06
6.1035e-06
6.1279e-06
6.0791e-06
6.1279e-06
6.1035e-06
6.1279e-06
6.1035e-06
6.1279e-06
6.1035e-06
6.1279e-06
6.1035e-06
6.1279e-06
6.1035e-06
6.1279e-06
6.1035e-06
6.1279e-06
6.1035e-06
6.1279e-06
6.1035e-06
6.1279e-06
6.0791e-06
6.1279e-06
6.1035e-06
6.1279e-06
6.0791e-06
6.1279e-06
6.1035e-06
6.1279e-06
6.1035e-06
6.1279e-06
6.1035e-06
6.1279e-06
6.1035e-06
6.1279e-06
6.0791e-06
6.1279e-06
6.1035e-06
6.1279e-06
6.1035e-06
6.1279e-06
6.1035e-06
6.1279e-06
6.0791e-06
6.1279e-06
6.1035e-06
6.1279e-06
6.1035e-06
6.1279e-06
6.1035e-06
6.1279e-06
6.1035e-06
6.1279e-06
6.1035e-06
6.1035e-06
6.0791e-06
6.1279e-06
6.0791e-06
6.1279e-06
6.0791e-06
6.1279e-06
6.1035e-06
6.1279e-06
6.1035e-06
6.1279e-06
6.1035e-06
6.1279e-06
6.0791e-06
6.1279e-06
6.0791e-06
6.1279e-06
6.0791e-06
6.1279e-06
6.0791e-06
6.1279e-06
6.1035e-06
6.1035e-06
6.0791e-06
6.1035e-06
6.0791e-06
6.1279e-06
6.0791e-06
6.1279e-06
6.0791e-06
6.1035e-06
6.0791e-06
6.1035e-06
6.0791e-06
6.1035e-06
6.0791e-06
6.1035e-06
6.0791e-06
6.1035e-06
6.0791e-06
6.1035e-06
6.0791e-06
6.1035e-06
6.0791e-06
6.1279e-06
6.0791e-06
6.1035e-06
6.0791e-06
6.1035e-06
6.0791e-06
6.1035e-06
6.0791e-06
6.1035e-06
6.0791e-06
6.1035e-06
6.0791e-06
6.1035e-06
6.0791e-06
6.1035e-06
6.0791e-06
6.1035e-06
6.0791e-06
6.1035e-06
6.0791e-06
6.1035e-06
6.0791e-06
6.1035e-06
6.0791e-06
6.1035e-06
6.0791e-06
6.1035e-06
6.0791e-06
6.1035e-06
6.0791e-06
6.1035e-06
6.0791e-06
6.1035e-06
6.0791e-06
6.1035e-06
6.0791e-06
6.1035e-06
6.0791e-06
6.1035e-06
6.0791e-06
6.1035e-06
6.0791e-06
6.1035e-06
6.0791e-06
6.1035e-06
6.0791e-06
6.1035e-06
6.0791e-06
6.1035e-06
6.0791e-06
6.1035e-06
6.0791e-06
6.1035e-06
6.0791e-06
6.1035e-06
6.0791e-06
6.1035e-06
6.0791e-06
6.1035e-06
6.0791e-06
6.1035e-06
6.0791e-06
6.1035e-06
6.0791e-06
6.1035e-06
6.0791e-06
6.1035e-06
6.0791e-06
6.0791e-06
6.0791e-06
6.1035e-06
6.0791e-06
6.1035e-06
6.0791e-06
6.1035e-06
6.0791e-06
6.1035e-06
6.0547e-06
6.1035e-06
6.0791e-06
6.0791e-06
6.0791e-06
6.1035e-06
6.0791e-06
6.1035e-06
6.0791e-06
6.0791e-06
6.0791e-06
6.0791e-06
6.0791e-06
6.0791e-06
6.0791e-06
6.0791e-06
6.0791e-06
6.1035e-06
6.0547e-06
6.0791e-06
6.0547e-06
6.0791e-06
6.0547e-06
6.0791e-06
6.0547e-06
6.0791e-06
6.0547e-06
6.0791e-06
6.0547e-06
6.0791e-06
6.0547e-06
6.0791e-06
6.0547e-06
6.1035e-06
6.0791e-06
6.0791e-06
6.0547e-06
6.0791e-06
6.0547e-06
6.0791e-06
6.0547e-06
6.0791e-06
6.0547e-06
6.0791e-06
6.0547e-06
6.0791e-06
6.0547e-06
6.0791e-06
6.0547e-06
6.0791e-06
6.0547e-06
6.0791e-06
6.0547e-06
6.0791e-06
6.0547e-06
6.0791e-06
6.0547e-06
6.0791e-06
6.0547e-06
6.0791e-06
6.0547e-06
6.0791e-06
6.0547e-06
6.0791e-06
6.0547e-06
6.0791e-06
6.0547e-06
6.0791e-06
6.0547e-06
6.0791e-06
6.0547e-06
6.0791e-06
6.0547e-06
6.0791e-06
6.0547e-06
6.0791e-06
6.0547e-06
6.0791e-06
6.0547e-06
6.0791e-06
6.0547e-06
6.0791e-06
6.0547e-06
6.0791e-06
6.0547e-06
6.0791e-06
6.0547e-06
6.0791e-06
6.0547e-06
6.0791e-06
6.0547e-06
6.0791e-06
6.0547e-06
6.0791e-06
6.0547e-06
6.0791e-06
6.0547e-06
6.0791e-06
6.0547e-06
6.0791e-06
6.0547e-06
6.0791e-06
6.0547e-06
6.0791e-06
6.0547e-06
6.0791e-06
6.0547e-06
6.0791e-06
6.0547e-06
6.0791e-06
6.0547e-06
6.0791e-06
6.0547e-06
6.0791e-06
6.0547e-06
6.0791e-06
6.0547e-06
6.0791e-06
6.0547e-06
6.0791e-06
6.0547e-06
6.0791e-06
6.0547e-06
6.0791e-06
6.0547e-06
6.0791e-06
6.0547e-06
6.0791e-06
6.0547e-06
6.0791e-06
6.0547e-06
6.0791e-06
6.0547e-06
6.0791e-06
6.0547e-06
6.0791e-06
6.0547e-06
6.0791e-06
6.0547e-06
6.0791e-06
6.0547e-06
6.0791e-06
6.0547e-06
6.0791e-06
6.0547e-06
6.0791e-06
6.0547e-06
6.0791e-06
6.0547e-06
6.0791e-06
6.0547e-06
6.0547e-06
6.0547e-06
6.0791e-06
6.0547e-06
6.0791e-06
6.0547e-06
6.0791e-06
6.0547e-06
6.0791e-06
6.0547e-06
6.0791e-06
6.0547e-06
6.0791e-06
6.0303e-06
6.0547e-06
6.0547e-06
6.0791e-06
6.0547e-06
6.0791e-06
6.0547e-06
6.0791e-06
6.0547e-06
6.0547e-06
6.0547e-06
6.0547e-06
6.0303e-06
6.0791e-06
6.0547e-06
6.0547e-06
6.0547e-06
6.0791e-06
6.0547e-06
6.0547e-06
6.0547e-06
6.0547e-06
6.0547e-06
6.0791e-06
6.0303e-06
6.0547e-06
6.0547e-06
6.0791e-06
6.0547e-06
6.0791e-06
6.0547e-06
6.0547e-06
6.0547e-06
6.0547e-06
6.0547e-06
6.0547e-06
6.0547e-06
6.0547e-06
6.0547e-06
6.0547e-06
6.0547e-06
6.0547e-06
6.0547e-06
6.0547e-06
6.0303e-06
6.0547e-06
6.0547e-06
6.0547e-06
6.0303e-06
6.0547e-06
6.0547e-06
6.0547e-06
6.0303e-06
6.0547e-06
6.0303e-06
6.0547e-06
6.0303e-06
6.0547e-06
6.0547e-06
6.0547e-06
6.0303e-06
6.0547e-06
6.0303e-06
6.0547e-06
6.0303e-06
6.0547e-06
6.0303e-06
6.0547e-06
6.0303e-06
6.0547e-06
6.0547e-06
6.0547e-06
6.0303e-06
6.0547e-06
6.0303e-06
6.0547e-06
6.0303e-06
6.0547e-06
6.0303e-06
6.0547e-06
6.0303e-06
6.0547e-06
6.0303e-06
6.0547e-06
6.0303e-06
6.0547e-06
6.0303e-06
6.0547e-06
6.0303e-06
6.0547e-06
6.0303e-06
6.0547e-06
6.0303e-06
6.0547e-06
6.0303e-06
6.0547e-06
6.0303e-06
6.0547e-06
6.0303e-06
6.0547e-06
6.0303e-06
6.0547e-06
6.0303e-06
6.0547e-06
6.0303e-06
6.0547e-06
6.0303e-06
6.0547e-06
6.0303e-06
6.0547e-06
6.0303e-06
6.0547e-06
6.0303e-06
6.0547e-06
6.0303e-06
6.0547e-06
6.0303e-06
6.0547e-06
6.0303e-06
6.0547e-06
6.0303e-06
6.0547e-06
6.0303e-06
6.0547e-06
6.0303e-06
6.0547e-06
6.0303e-06
6.0547e-06
6.0303e-06
6.0547e-06
6.0303e-06
6.0547e-06
6.0059e-06
6.0547e-06
6.0303e-06
6.0303e-06
6.0059e-06
6.0547e-06
6.0303e-06
6.0547e-06
6.0303e-06
6.0547e-06
6.0303e-06
6.0547e-06
6.0303e-06
6.0547e-06
6.0303e-06
6.0547e-06
6.0303e-06
6.0303e-06
6.0303e-06
6.0547e-06
6.0059e-06
6.0547e-06
6.0303e-06
6.0303e-06
6.0303e-06
6.0547e-06
6.0303e-06
6.0303e-06
6.0303e-06
6.0547e-06
6.0059e-06
6.0547e-06
6.0059e-06
6.0303e-06
6.0303e-06
6.0303e-06
6.0059e-06
6.0303e-06
6.0303e-06
6.0303e-06
6.0303e-06
6.0303e-06
6.0059e-06
6.0303e-06
6.0303e-06
6.0303e-06
6.0303e-06
6.0303e-06
6.0059e-06
6.0303e-06
6.0303e-06
6.0303e-06
6.0059e-06
6.0547e-06
6.0059e-06
6.0303e-06
6.0059e-06
6.0547e-06
6.0059e-06
6.0303e-06
6.0059e-06
6.0303e-06
6.0059e-06
6.0303e-06
6.0059e-06
6.0303e-06
6.0303e-06
6.0303e-06
6.0059e-06
6.0547e-06
6.0059e-06
6.0303e-06
6.0059e-06
6.0303e-06
6.0059e-06
6.0303e-06
6.0059e-06
6.0303e-06
6.0059e-06
6.0303e-06
6.0059e-06
6.0303e-06
6.0059e-06
6.0303e-06
6.0059e-06
6.0303e-06
6.0059e-06
6.0303e-06
6.0059e-06
6.0303e-06
6.0059e-06
6.0303e-06
6.0059e-06
6.0303e-06
6.0059e-06
6.0303e-06
6.0059e-06
6.0303e-06
6.0059e-06
6.0303e-06
6.0059e-06
6.0303e-06
6.0059e-06
6.0303e-06
6.0059e-06
6.0303e-06
6.0059e-06
6.0303e-06
6.0059e-06
6.0303e-06
6.0059e-06
6.0303e-06
6.0059e-06
6.0303e-06
6.0059e-06
6.0303e-06
6.0059e-06
6.0303e-06
6.0059e-06
6.0303e-06
6.0059e-06
6.0303e-06
6.0059e-06
6.0303e-06
6.0059e-06
6.0303e-06
6.0059e-06
6.0303e-06
6.0059e-06
6.0303e-06
6.0059e-06
6.0303e-06
6.0059e-06
6.0303e-06
6.0059e-06
6.0059e-06
6.0059e-06
6.0303e-06
6.0059e-06
6.0303e-06
6.0059e-06
6.0303e-06
6.0059e-06
6.0303e-06
6.0059e-06
6.0303e-06
6.0059e-06
6.0059e-06
6.0059e-06
6.0303e-06
6.0059e-06
6.0303e-06
5.9814e-06
6.0059e-06
5.9814e-06
6.0303e-06
6.0059e-06
6.0303e-06
5.9814e-06
6.0059e-06
5.9814e-06
6.0303e-06
6.0059e-06
6.0303e-06
5.9814e-06
6.0059e-06
5.9814e-06
6.0303e-06
5.9814e-06
6.0059e-06
6.0059e-06
6.0059e-06
5.9814e-06
6.0059e-06
6.0059e-06
6.0303e-06
5.9814e-06
6.0059e-06
5.9814e-06
6.0059e-06
5.9814e-06
6.0303e-06
5.9814e-06
6.0303e-06
5.9814e-06
6.0059e-06
5.9814e-06
6.0059e-06
5.9814e-06
6.0059e-06
5.9814e-06
6.0059e-06
5.9814e-06
6.0059e-06
5.9814e-06
6.0059e-06
5.9814e-06
6.0059e-06
5.9814e-06
6.0059e-06
5.9814e-06
6.0059e-06
5.9814e-06
6.0059e-06
5.9814e-06
6.0059e-06
5.9814e-06
6.0059e-06
5.957e-06
6.0059e-06
5.9814e-06
6.0059e-06
5.957e-06
6.0059e-06
5.9814e-06
6.0059e-06
5.9814e-06
6.0059e-06
5.9814e-06
6.0059e-06
5.9814e-06
6.0059e-06
5.9814e-06
6.0059e-06
5.9814e-06
6.0059e-06
5.9814e-06
6.0059e-06
5.9814e-06
6.0059e-06
5.9814e-06
6.0059e-06
5.9814e-06
6.0059e-06
5.9814e-06
6.0059e-06
5.957e-06
6.0059e-06
5.9814e-06
6.0059e-06
5.9814e-06
6.0059e-06
5.9814e-06
6.0059e-06
5.9814e-06
6.0059e-06
5.9814e-06
5.9814e-06
5.9814e-06
6.0059e-06
5.9814e-06
6.0059e-06
5.957e-06
5.9814e-06
5.9814e-06
5.9814e-06
5.957e-06
5.9814e-06
5.9814e-06
6.0059e-06
5.9814e-06
5.9814e-06
5.9814e-06
5.9814e-06
5.957e-06
5.9814e-06
5.9814e-06
5.9814e-06
5.957e-06
6.0059e-06
5.957e-06
5.9814e-06
5.957e-06
6.0059e-06
5.957e-06
5.9814e-06
5.957e-06
6.0059e-06
5.9814e-06
6.0059e-06
5.957e-06
6.0059e-06
5.957e-06
6.0059e-06
5.957e-06
5.9814e-06
5.957e-06
5.9814e-06
5.957e-06
5.9814e-06
5.957e-06
5.9814e-06
5.957e-06
5.9814e-06
5.957e-06
5.9814e-06
5.957e-06
5.9814e-06
5.9814e-06
5.9814e-06
5.957e-06
5.9814e-06
5.957e-06
5.9814e-06
5.957e-06
5.9814e-06
5.957e-06
5.9814e-06
5.957e-06
5.9814e-06
5.957e-06
5.9814e-06
5.957e-06
5.9814e-06
5.957e-06
6.0059e-06
5.957e-06
5.9814e-06
5.957e-06
5.9814e-06
5.957e-06
5.9814e-06
5.957e-06
5.9814e-06
5.957e-06
5.9814e-06
5.957e-06
5.9814e-06
5.957e-06
5.9814e-06
5.957e-06
5.9814e-06
5.957e-06
5.9814e-06
5.957e-06
5.9814e-06
5.957e-06
5.9814e-06
5.957e-06
5.9814e-06
5.957e-06
5.9814e-06
5.957e-06
5.9814e-06
5.957e-06
5.9814e-06
5.957e-06
5.9814e-06
5.957e-06
5.9814e-06
5.957e-06
5.9814e-06
5.957e-06
5.9814e-06
5.957e-06
5.9814e-06
5.957e-06
5.9814e-06
5.957e-06
5.9814e-06
5.957e-06
5.9814e-06
5.957e-06
5.9814e-06
5.957e-06
5.9814e-06
5.957e-06
5.9814e-06
5.957e-06
5.9814e-06
5.957e-06
5.9814e-06
5.957e-06
5.9814e-06
5.957e-06
5.9814e-06
5.957e-06
5.9814e-06
5.957e-06
5.957e-06
5.9326e-06
5.957e-06
5.957e-06
5.9814e-06
5.9326e-06
5.9814e-06
5.9326e-06
5.957e-06
5.957e-06
5.957e-06
5.957e-06
5.957e-06
5.9326e-06
5.9814e-06
5.957e-06
5.957e-06
5.9326e-06
5.957e-06
5.9326e-06
5.9814e-06
5.9326e-06
5.9814e-06
5.957e-06
5.957e-06
5.9326e-06
5.957e-06
5.9326e-06
5.9814e-06
5.9326e-06
5.957e-06
5.957e-06
5.957e-06
5.9326e-06
5.957e-06
5.957e-06
5.957e-06
5.9326e-06
5.957e-06
5.9326e-06
5.957e-06
5.9326e-06
5.957e-06
5.957e-06
5.957e-06
5.9326e-06
5.957e-06
5.9326e-06
5.957e-06
5.9326e-06
5.957e-06
5.957e-06
5.957e-06
5.9326e-06
5.957e-06
5.9326e-06
5.957e-06
5.9326e-06
5.957e-06
5.9326e-06
5.957e-06
5.9326e-06
5.957e-06
5.9326e-06
5.957e-06
5.9326e-06
5.957e-06
5.9326e-06
5.957e-06
5.9326e-06
5.957e-06
5.9326e-06
5.957e-06
5.9326e-06
5.957e-06
5.9326e-06
5.957e-06
5.9326e-06
5.957e-06
5.9326e-06
5.957e-06
5.9326e-06
5.957e-06
5.9326e-06
5.957e-06
5.9326e-06
5.957e-06
5.9326e-06
5.957e-06
5.9326e-06
5.957e-06
5.9326e-06
5.957e-06
5.9326e-06
5.957e-06
5.9326e-06
5.957e-06
5.9326e-06
5.957e-06
5.9326e-06
5.957e-06
5.9326e-06
5.957e-06
5.9326e-06
5.957e-06
5.9326e-06
5.957e-06
5.9326e-06
5.9326e-06
5.9326e-06
5.957e-06
5.9326e-06
5.957e-06
5.9326e-06
5.9326e-06
5.9326e-06
5.957e-06
5.9326e-06
5.957e-06
5.9326e-06
5.9326e-06
5.9326e-06
5.9326e-06
5.9326e-06
5.957e-06
5.9326e-06
5.957e-06
5.9326e-06
5.957e-06
5.9082e-06
5.9326e-06
5.9326e-06
5.957e-06
5.9326e-06
5.9326e-06
5.9326e-06
5.9326e-06
5.9326e-06
5.957e-06
5.9326e-06
5.9326e-06
5.9082e-06
5.957e-06
5.9326e-06
5.957e-06
5.9326e-06
5.9326e-06
5.9326e-06
5.957e-06
5.9082e-06
5.9326e-06
5.9326e-06
5.9326e-06
5.9326e-06
5.9326e-06
5.9326e-06
5.957e-06
5.9082e-06
5.9326e-06
5.9326e-06
5.9326e-06
5.9326e-06
5.9326e-06
5.9326e-06
5.9326e-06
5.9082e-06
5.9326e-06
5.9326e-06
5.9326e-06
5.9082e-06
5.9326e-06
5.9326e-06
5.9326e-06
5.9082e-06
5.9326e-06
5.9082e-06
5.9326e-06
5.9082e-06
5.9326e-06
5.9326e-06
5.9326e-06
5.9082e-06
5.9326e-06
5.9082e-06
5.9326e-06
5.9082e-06
5.9326e-06
5.9082e-06
5.9326e-06
5.9082e-06
5.9326e-06
5.9082e-06
5.9326e-06
5.9082e-06
5.9326e-06
5.9082e-06
5.9326e-06
5.9082e-06
5.9326e-06
5.9082e-06
5.9326e-06
5.9082e-06
5.9326e-06
5.9082e-06
5.9326e-06
5.9082e-06
5.9326e-06
5.9082e-06
5.9326e-06
5.9082e-06
5.9326e-06
5.9082e-06
5.9326e-06
5.9082e-06
5.9326e-06
5.9326e-06
5.9326e-06
5.8838e-06
5.9326e-06
5.9082e-06
5.9326e-06
5.9082e-06
5.9326e-06
5.9082e-06
5.9326e-06
5.9082e-06
5.9326e-06
5.9082e-06
5.9326e-06
5.9082e-06
5.9326e-06
5.9082e-06
5.9326e-06
5.9082e-06
5.9326e-06
5.9082e-06
5.9082e-06
5.8838e-06
5.9326e-06
5.9082e-06
5.9326e-06
5.9082e-06
5.9326e-06
5.9082e-06
5.9326e-06
5.9082e-06
5.9326e-06
5.9082e-06
5.9326e-06
5.9082e-06
5.9326e-06
5.9082e-06
5.9326e-06
5.9082e-06
5.9326e-06
5.9082e-06
5.9326e-06
5.8838e-06
5.9326e-06
5.9082e-06
5.9082e-06
5.9082e-06
5.9326e-06
5.9082e-06
5.9326e-06
5.9082e-06
5.9326e-06
5.9082e-06
5.9326e-06
5.8838e-06
5.9082e-06
5.9082e-06
5.9082e-06
5.8838e-06
5.9326e-06
5.9082e-06
5.9082e-06
5.8838e-06
5.9326e-06
5.8838e-06
5.9326e-06
5.9082e-06
5.9082e-06
5.9082e-06
5.9326e-06
5.8838e-06
5.9082e-06
5.9082e-06
5.9082e-06
5.9082e-06
5.9082e-06
5.9082e-06
5.9082e-06
5.8838e-06
5.9326e-06
5.9082e-06
5.9082e-06
5.8838e-06
5.9082e-06
5.8838e-06
5.9082e-06
5.8838e-06
5.9082e-06
5.8838e-06
5.9082e-06
5.9082e-06
5.9082e-06
5.8838e-06
5.9082e-06
5.8838e-06
5.9082e-06
5.8838e-06
5.9326e-06
5.8838e-06
5.9082e-06
5.8838e-06
5.9082e-06
5.8838e-06
5.9326e-06
5.8838e-06
5.9082e-06
5.8838e-06
5.9082e-06
5.8838e-06
5.9082e-06
5.8838e-06
5.9326e-06
5.8838e-06
5.9082e-06
5.8838e-06
5.9082e-06
5.8838e-06
5.9082e-06
5.8838e-06
5.9082e-06
5.8838e-06
5.9082e-06
5.8838e-06
5.9082e-06
5.8838e-06
5.9082e-06
5.8838e-06
5.9082e-06
5.8838e-06
5.9082e-06
5.8838e-06
5.9082e-06
5.8838e-06
5.9082e-06
5.8838e-06
5.9082e-06
5.8838e-06
5.9082e-06
5.8838e-06
5.9082e-06
5.8838e-06
5.9082e-06
5.8838e-06
5.9082e-06
5.8838e-06
5.9082e-06
5.8838e-06
5.9082e-06
5.8838e-06
5.8838e-06
5.8838e-06
5.9082e-06
5.8838e-06
5.9082e-06
5.8838e-06
5.9082e-06
5.8838e-06
5.8838e-06
5.8838e-06
5.9082e-06
5.8838e-06
5.9082e-06
5.8838e-06
5.9082e-06
5.8838e-06
5.9082e-06
5.8838e-06
5.9082e-06
5.8838e-06
5.8838e-06
5.8594e-06
5.9082e-06
5.8594e-06
5.9082e-06
5.8838e-06
5.8838e-06
5.8838e-06
5.9082e-06
5.8838e-06
5.9082e-06
5.8594e-06
5.9082e-06
5.8838e-06
5.9082e-06
5.8838e-06
5.8838e-06
5.8594e-06
5.8838e-06
5.8838e-06
5.9082e-06
5.8838e-06
5.8838e-06
5.8838e-06
5.8838e-06
5.8838e-06
5.9082e-06
5.8838e-06
5.8838e-06
5.8594e-06
5.9082e-06
5.8838e-06
5.8838e-06
5.8838e-06
5.8838e-06
5.8594e-06
5.8838e-06
5.8838e-06
5.9082e-06
5.8838e-06
5.9082e-06
5.8838e-06
5.9082e-06
5.8838e-06
5.8838e-06
5.8594e-06
5.8838e-06
5.8838e-06
5.9082e-06
5.8838e-06
5.9082e-06
5.8838e-06
5.8838e-06
5.8594e-06
5.9082e-06
5.8838e-06
5.8838e-06
5.8838e-06
5.9082e-06
5.8838e-06
5.8838e-06
5.8838e-06
5.8838e-06
5.8594e-06
5.8838e-06
5.8594e-06
5.9082e-06
5.8838e-06
5.9082e-06
5.8594e-06
5.8838e-06
5.8838e-06
5.9082e-06
5.8594e-06
5.8838e-06
5.8838e-06
5.9082e-06
5.8838e-06
5.9082e-06
5.8838e-06
5.9082e-06
5.8838e-06
5.8838e-06
5.8838e-06
5.8838e-06
5.8594e-06
5.8838e-06
5.8838e-06
5.8838e-06
5.8594e-06
5.8838e-06
5.8838e-06
5.8838e-06
5.8594e-06
5.8838e-06
5.8594e-06
5.8838e-06
5.8838e-06
5.9082e-06
5.8838e-06
5.8838e-06
5.8594e-06
5.8838e-06
5.8838e-06
5.8838e-06
5.8838e-06
5.8838e-06
5.8838e-06
5.9082e-06
5.8594e-06
5.8838e-06
5.8594e-06
5.8838e-06
5.8594e-06
5.8838e-06
5.8594e-06
5.8838e-06
5.8594e-06
5.8838e-06
5.8838e-06
5.8838e-06
5.8594e-06
5.8838e-06
5.8594e-06
5.8838e-06
5.8838e-06
5.8838e-06
5.8594e-06
5.8838e-06
5.8594e-06
5.8838e-06
5.8838e-06
5.8838e-06
5.8594e-06
5.8838e-06
5.8594e-06
5.9082e-06
5.8594e-06
5.8838e-06
5.8838e-06
5.8838e-06
5.8594e-06
5.8838e-06
5.8838e-06
5.8838e-06
5.8594e-06
5.8838e-06
5.8594e-06
5.8838e-06
5.8594e-06
5.8838e-06
5.8838e-06
5.8838e-06
5.8594e-06
5.8838e-06
5.8594e-06
5.8838e-06
5.8594e-06
5.8838e-06
5.8594e-06
5.8838e-06
5.8594e-06
5.8838e-06
5.8838e-06
5.8838e-06
5.8594e-06
5.8838e-06
5.8594e-06
5.8838e-06
5.8594e-06
5.8838e-06
5.8594e-06
5.8838e-06
5.8594e-06
5.8838e-06
5.8838e-06
5.8838e-06
5.8594e-06
5.8838e-06
5.8594e-06
5.8838e-06
5.8594e-06
5.8838e-06
5.8594e-06
5.8838e-06
5.8594e-06
5.9082e-06
5.8594e-06
5.8838e-06
5.8594e-06
5.8838e-06
5.8594e-06
5.8838e-06
5.8594e-06
5.8838e-06
5.8594e-06
5.8838e-06
5.8594e-06
5.8838e-06
5.8594e-06
5.8838e-06
5.8594e-06
5.8838e-06
5.8594e-06
5.8838e-06
5.8594e-06
5.8838e-06
5.8594e-06
5.8838e-06
5.8594e-06
5.8838e-06
5.8594e-06
5.8838e-06
5.8594e-06
5.8838e-06
5.8594e-06
5.8838e-06
5.8594e-06
5.8838e-06
5.8594e-06
5.8838e-06
5.8594e-06
5.8838e-06
5.8594e-06
5.8838e-06
5.8594e-06
5.8838e-06
5.8594e-06
5.8838e-06
5.8594e-06
5.8838e-06
5.8594e-06
5.8838e-06
5.8594e-06
5.8838e-06
5.8594e-06
5.8838e-06
5.8594e-06
5.8838e-06
5.8594e-06
5.8838e-06
5.835e-06
5.8838e-06
5.835e-06
5.8838e-06
5.8594e-06
5.8838e-06
5.8594e-06
5.8838e-06
5.8594e-06
5.8838e-06
5.8594e-06
5.8838e-06
5.835e-06
5.8838e-06
5.8594e-06
5.8838e-06
5.8594e-06
5.8838e-06
5.8594e-06
5.8838e-06
5.8594e-06
5.8594e-06
5.8594e-06
5.8594e-06
5.8594e-06
5.8838e-06
5.8594e-06
5.8838e-06
5.8594e-06
5.8838e-06
5.8594e-06
5.8838e-06
5.8594e-06
5.8838e-06
5.8594e-06
5.8594e-06
5.8594e-06
5.8838e-06
5.8594e-06
5.8838e-06
5.8594e-06
5.8594e-06
5.8594e-06
5.8594e-06
5.8594e-06
5.8838e-06
5.8594e-06
5.8838e-06
5.835e-06
5.8838e-06
5.835e-06
5.8594e-06
5.835e-06
5.8838e-06
5.835e-06
5.8838e-06
5.835e-06
5.8594e-06
5.8594e-06
5.8838e-06
5.8594e-06
5.8594e-06
5.835e-06
5.8838e-06
5.8594e-06
5.8594e-06
5.8594e-06
5.8838e-06
5.835e-06
5.8838e-06
5.8594e-06
5.8838e-06
5.8594e-06
5.8838e-06
5.8594e-06
5.8838e-06
5.835e-06
5.8594e-06
5.8594e-06
5.8594e-06
5.835e-06
5.8838e-06
5.835e-06
5.8838e-06
5.835e-06
5.8838e-06
5.835e-06
5.8594e-06
5.835e-06
5.8594e-06
5.835e-06
5.8838e-06
5.835e-06
5.8594e-06
5.835e-06
5.8838e-06
5.835e-06
5.8838e-06
5.835e-06
5.8594e-06
5.835e-06
5.8838e-06
5.8594e-06
5.8838e-06
5.835e-06
5.8838e-06
5.835e-06
5.8594e-06
5.835e-06
5.8838e-06
5.835e-06
5.8838e-06
5.835e-06
5.8838e-06
5.8594e-06
5.8838e-06
5.835e-06
5.8838e-06
5.8594e-06
5.8838e-06
5.835e-06
5.8594e-06
5.835e-06
5.8838e-06
5.835e-06
5.8594e-06
5.835e-06
5.8838e-06
5.835e-06
5.8838e-06
5.835e-06
5.8838e-06
5.835e-06
5.8594e-06
5.835e-06
5.8838e-06
5.835e-06
5.8838e-06
5.835e-06
5.8838e-06
5.835e-06
5.8594e-06
5.835e-06
5.8838e-06
5.835e-06
5.8594e-06
5.835e-06
5.8838e-06
5.835e-06
5.8838e-06
5.835e-06
5.8838e-06
5.835e-06
5.8838e-06
5.835e-06
5.8594e-06
5.835e-06
5.8838e-06
5.835e-06
5.8838e-06
5.835e-06
5.8838e-06
5.835e-06
5.8838e-06
5.835e-06
5.8594e-06
5.835e-06
5.8594e-06
5.835e-06
5.8594e-06
5.835e-06
5.8594e-06
5.835e-06
5.8594e-06
5.8594e-06
5.8594e-06
5.835e-06
5.8594e-06
5.835e-06
5.8594e-06
5.835e-06
5.8594e-06
5.835e-06
5.8594e-06
5.835e-06
5.8594e-06
5.8594e-06
5.8594e-06
5.835e-06
5.8594e-06
5.835e-06
5.8594e-06
5.835e-06
5.8594e-06
5.835e-06
5.8594e-06
5.835e-06
5.8594e-06
5.835e-06
5.8594e-06
5.835e-06
5.8594e-06
5.835e-06
5.8594e-06
5.835e-06
5.8594e-06
5.835e-06
5.8594e-06
5.835e-06
5.8594e-06
5.835e-06
5.8594e-06
5.835e-06
5.8594e-06
5.835e-06
5.8594e-06
5.835e-06
5.8594e-06
5.835e-06
5.8594e-06
5.835e-06
5.8594e-06
5.835e-06
5.8594e-06
5.835e-06
5.8594e-06
5.835e-06
5.8594e-06
5.835e-06
5.8594e-06
5.835e-06
5.8594e-06
5.835e-06
5.8594e-06
5.835e-06
5.835e-06
5.835e-06
5.8594e-06
5.835e-06
5.8594e-06
5.835e-06
5.8594e-06
5.835e-06
5.8594e-06
5.835e-06
5.8594e-06
5.835e-06
5.8594e-06
5.835e-06
5.8594e-06
5.835e-06
5.8594e-06
5.835e-06
5.8594e-06
5.835e-06
5.8594e-06
5.835e-06
5.8594e-06
5.835e-06
5.8594e-06
5.835e-06
5.8594e-06
5.835e-06
5.8594e-06
5.835e-06
5.8594e-06
5.835e-06
5.8594e-06
5.835e-06
5.8594e-06
5.835e-06
5.835e-06
5.835e-06
5.8594e-06
5.835e-06
5.8594e-06
5.835e-06
5.835e-06
5.835e-06
5.835e-06
5.835e-06
5.8594e-06
5.835e-06
5.8594e-06
5.835e-06
5.8594e-06
5.835e-06
5.8594e-06
5.835e-06
5.8594e-06
5.835e-06
5.8594e-06
5.835e-06
5.8594e-06
5.835e-06
5.8594e-06
5.835e-06
5.8594e-06
5.835e-06
5.8594e-06
5.835e-06
5.8594e-06
5.835e-06
5.8594e-06
5.835e-06
5.8594e-06
5.835e-06
5.8594e-06
5.835e-06
5.8594e-06
5.835e-06
5.8594e-06
5.835e-06
5.8594e-06
5.835e-06
5.8594e-06
5.835e-06
5.8594e-06
5.835e-06
5.8594e-06
5.835e-06
5.8594e-06
5.835e-06
5.8594e-06
5.835e-06
5.8594e-06
5.835e-06
5.8594e-06
5.8594e-06
5.8594e-06
5.8594e-06
5.8594e-06
5.8594e-06
5.8838e-06
5.8594e-06
5.8594e-06
5.835e-06
5.8594e-06
5.8594e-06
5.8594e-06
5.8594e-06
5.8838e-06
5.8594e-06
5.8838e-06
5.8594e-06
5.8838e-06
5.8594e-06
5.8594e-06
5.8594e-06
5.8838e-06
5.8594e-06
5.8838e-06
5.8594e-06
5.8838e-06
5.8594e-06
5.8838e-06
5.8594e-06
5.8838e-06
5.8594e-06
5.8838e-06
5.8594e-06
5.8838e-06
5.8594e-06
5.8838e-06
5.8594e-06
5.8838e-06
5.8594e-06
5.8838e-06
5.8594e-06
5.8838e-06
5.8594e-06
5.8838e-06
5.8594e-06
5.8838e-06
5.8838e-06
5.8838e-06
5.8838e-06
5.8838e-06
5.8594e-06
5.8838e-06
5.8594e-06
5.8838e-06
5.8838e-06
5.9082e-06
5.8594e-06
5.8838e-06
5.8594e-06
5.8838e-06
5.8594e-06
5.8838e-06
5.8594e-06
5.8838e-06
5.8838e-06
5.8838e-06
5.8594e-06
5.8838e-06
5.8838e-06
5.9082e-06
5.8594e-06
5.8838e-06
5.8838e-06
5.8838e-06
5.8838e-06
5.9082e-06
5.8838e-06
5.9082e-06
5.8838e-06
5.9082e-06
5.8594e-06
5.9082e-06
5.8838e-06
5.9082e-06
5.8838e-06
5.9082e-06
5.8838e-06
5.9082e-06
5.8838e-06
5.8838e-06
5.8838e-06
5.9082e-06
5.8838e-06
5.9082e-06
5.8838e-06
5.9082e-06
5.8838e-06
5.9082e-06
5.8838e-06
5.9082e-06
5.8838e-06
5.9082e-06
5.8838e-06
5.9082e-06
5.8838e-06
5.9082e-06
5.9082e-06
5.9326e-06
5.8838e-06
5.9082e-06
5.9082e-06
5.9326e-06
5.9082e-06
5.9326e-06
5.9082e-06
5.9082e-06
5.9082e-06
5.9326e-06
5.9326e-06
5.9326e-06
5.8838e-06
5.9326e-06
5.9326e-06
5.9326e-06
5.9326e-06
5.9326e-06
5.9326e-06
5.9326e-06
5.9326e-06
5.9326e-06
5.9326e-06
5.957e-06
5.9326e-06
5.957e-06
5.9326e-06
5.957e-06
5.9326e-06
5.9326e-06
5.9326e-06
5.957e-06
5.9326e-06
5.957e-06
5.957e-06
5.957e-06
5.957e-06
5.9814e-06
5.957e-06
5.9814e-06
5.957e-06
5.9814e-06
5.957e-06
5.9814e-06
5.957e-06
5.9814e-06
5.957e-06
6.0059e-06
5.957e-06
6.0059e-06
5.9814e-06
6.0059e-06
5.9814e-06
6.0059e-06
5.9814e-06
6.0059e-06
5.9814e-06
6.0059e-06
6.0059e-06
6.0059e-06
6.0059e-06
6.0303e-06
6.0059e-06
6.0059e-06
6.0059e-06
6.0303e-06
6.0059e-06
6.0303e-06
6.0059e-06
6.0303e-06
6.0059e-06
6.0303e-06
6.0059e-06
6.0303e-06
6.0303e-06
6.0303e-06
6.0059e-06
6.0547e-06
6.0303e-06
6.0303e-06
6.0303e-06
6.0303e-06
6.0303e-06
6.0303e-06
6.0303e-06
6.0303e-06
6.0303e-06
6.0547e-06
6.0303e-06
6.0547e-06
6.0303e-06
6.0547e-06
6.0303e-06
6.0547e-06
6.0303e-06
6.0547e-06
6.0303e-06
6.0547e-06
6.0547e-06
6.0547e-06
6.0547e-06
6.0547e-06
6.0547e-06
6.0547e-06
6.0547e-06
6.0791e-06
6.0547e-06
6.0547e-06
6.0547e-06
6.0791e-06
6.0547e-06
6.0791e-06
6.0547e-06
6.0791e-06
6.0547e-06
6.0791e-06
6.0547e-06
6.0791e-06
6.0547e-06
6.0791e-06
6.0547e-06
6.0791e-06
6.0547e-06
6.0791e-06
6.0547e-06
6.0791e-06
6.0547e-06
6.0791e-06
6.0791e-06
6.0791e-06
6.0547e-06
6.0791e-06
6.0547e-06
6.0791e-06
6.0547e-06
6.0791e-06
6.0791e-06
6.0791e-06
6.0547e-06
6.0791e-06
6.0547e-06
6.0791e-06
6.0791e-06
6.0791e-06
6.0791e-06
6.0791e-06
6.0791e-06
6.0791e-06
6.0791e-06
6.0791e-06
6.0791e-06
6.0791e-06
6.0791e-06
6.1035e-06
6.0791e-06
6.0791e-06
6.0791e-06
6.1035e-06
6.0791e-06
6.1035e-06
6.0791e-06
6.1035e-06
6.0791e-06
6.1035e-06
6.0791e-06
6.1035e-06
6.0791e-06
6.1035e-06
6.0791e-06
6.0791e-06
6.0791e-06
6.1035e-06
6.0791e-06
6.1035e-06
6.0791e-06
6.1035e-06
6.0791e-06
6.0791e-06
6.0791e-06
6.0791e-06
6.0791e-06
6.1035e-06
6.0791e-06
6.1035e-06
6.0791e-06
6.1035e-06
6.0791e-06
6.1035e-06
6.0791e-06
6.0791e-06
6.0547e-06
6.0791e-06
6.0547e-06
6.0791e-06
6.0791e-06
6.0791e-06
6.0547e-06
6.0791e-06
6.0547e-06
6.0791e-06
6.0791e-06
6.0791e-06
6.0547e-06
6.0791e-06
6.0547e-06
6.0791e-06
6.0547e-06
6.0791e-06
6.0547e-06
6.0791e-06
6.0547e-06
6.0791e-06
6.0547e-06
6.0791e-06
6.0547e-06
6.0791e-06
6.0547e-06
6.0791e-06
6.0547e-06
6.0791e-06
6.0547e-06
6.0791e-06
6.0547e-06
6.0791e-06
6.0547e-06
6.0791e-06
6.0547e-06
6.0547e-06
6.0303e-06
6.0547e-06
6.0547e-06
6.0547e-06
6.0547e-06
6.0547e-06
6.0547e-06
6.0547e-06
6.0303e-06
6.0547e-06
6.0303e-06
6.0547e-06
6.0303e-06
6.0547e-06
6.0303e-06
6.0547e-06
6.0303e-06
6.0547e-06
6.0303e-06
6.0547e-06
6.0303e-06
6.0547e-06
6.0303e-06
6.0547e-06
6.0303e-06
6.0547e-06
6.0303e-06
6.0547e-06
6.0303e-06
6.0547e-06
6.0303e-06
6.0547e-06
6.0303e-06
6.0303e-06
6.0303e-06
6.0303e-06
6.0059e-06
6.0303e-06
6.0303e-06
6.0303e-06
6.0059e-06
6.0303e-06
6.0059e-06
6.0303e-06
6.0059e-06
6.0303e-06
6.0303e-06
6.0303e-06
6.0059e-06
6.0303e-06
6.0059e-06
6.0303e-06
6.0059e-06
6.0303e-06
6.0059e-06
6.0303e-06
6.0059e-06
6.0303e-06
6.0059e-06
6.0059e-06
6.0059e-06
6.0303e-06
6.0059e-06
6.0303e-06
6.0059e-06
6.0303e-06
6.0059e-06
6.0059e-06
6.0059e-06
6.0059e-06
6.0059e-06
6.0059e-06
5.9814e-06
6.0059e-06
6.0059e-06
6.0059e-06
5.9814e-06
6.0059e-06
5.9814e-06
6.0059e-06
5.9814e-06
6.0059e-06
5.9814e-06
6.0059e-06
6.0059e-06
6.0059e-06
5.9814e-06
6.0059e-06
5.9814e-06
6.0059e-06
5.9814e-06
6.0059e-06
5.9814e-06
6.0059e-06
5.9814e-06
6.0059e-06
5.9814e-06
6.0059e-06
5.9814e-06
6.0059e-06
5.957e-06
6.0059e-06
5.9814e-06
5.9814e-06
5.9814e-06
5.9814e-06
5.9814e-06
5.9814e-06
5.9814e-06
5.9814e-06
5.9814e-06
5.9814e-06
5.957e-06
5.9814e-06
5.957e-06
5.9814e-06
5.957e-06
5.9814e-06
5.9814e-06
5.9814e-06
5.957e-06
5.9814e-06
5.957e-06
5.957e-06
5.9326e-06
5.9814e-06
5.957e-06
5.9814e-06
5.957e-06
5.957e-06
5.957e-06
5.9814e-06
5.9326e-06
5.957e-06
5.957e-06
5.957e-06
5.957e-06
5.957e-06
5.957e-06
5.957e-06
5.957e-06
5.957e-06
5.957e-06
5.9814e-06
5.9326e-06
5.957e-06
5.957e-06
5.9814e-06
5.9326e-06
5.957e-06
5.9326e-06
5.957e-06
5.9326e-06
5.957e-06
5.957e-06
5.957e-06
5.957e-06
5.957e-06
5.9326e-06
5.957e-06
5.9326e-06
5.957e-06
5.957e-06
5.957e-06
5.957e-06
5.957e-06
5.957e-06
5.957e-06
5.957e-06
5.957e-06
5.957e-06
5.957e-06
5.957e-06
5.957e-06
5.957e-06
5.957e-06
5.9326e-06
5.957e-06
5.957e-06
5.957e-06
5.957e-06
5.9814e-06
5.957e-06
5.957e-06
5.957e-06
5.957e-06
5.957e-06
5.9814e-06
5.957e-06
5.9814e-06
5.957e-06
5.957e-06
5.957e-06
5.9814e-06
5.957e-06
5.9814e-06
5.957e-06
5.9814e-06
5.957e-06
5.9814e-06
5.957e-06
5.9814e-06
5.957e-06
5.9814e-06
5.957e-06
5.9814e-06
5.9814e-06
5.9814e-06
5.957e-06
5.9814e-06
5.9814e-06
5.9814e-06
5.957e-06
5.9814e-06
5.957e-06
6.0059e-06
5.957e-06
6.0059e-06
5.9814e-06
5.9814e-06
5.9814e-06
5.9814e-06
5.9814e-06
6.0059e-06
5.9814e-06
5.9814e-06
5.9814e-06
6.0059e-06
5.9814e-06
6.0059e-06
5.9814e-06
6.0059e-06
5.9814e-06
6.0059e-06
5.9814e-06
6.0059e-06
5.9814e-06
6.0059e-06
5.9814e-06
6.0059e-06
5.9814e-06
6.0059e-06
5.9814e-06
6.0059e-06
5.9814e-06
6.0059e-06
5.9814e-06
6.0059e-06
5.9814e-06
6.0059e-06
5.9814e-06
6.0059e-06
5.9814e-06
6.0059e-06
6.0059e-06
6.0059e-06
5.9814e-06
6.0059e-06
5.9814e-06
6.0059e-06
5.9814e-06
6.0059e-06
5.9814e-06
6.0059e-06
5.9814e-06
6.0059e-06
6.0059e-06
6.0059e-06
5.9814e-06
6.0059e-06
5.9814e-06
6.0059e-06
5.9814e-06
6.0059e-06
6.0059e-06
6.0059e-06
5.9814e-06
6.0059e-06
6.0059e-06
6.0059e-06
5.9814e-06
6.0059e-06
5.9814e-06
6.0059e-06
5.9814e-06
6.0059e-06
5.9814e-06
6.0059e-06
5.9814e-06
6.0059e-06
5.9814e-06
6.0059e-06
6.0059e-06
6.0059e-06
6.0059e-06
6.0059e-06
5.9814e-06
6.0059e-06
5.9814e-06
6.0059e-06
5.9814e-06
6.0059e-06
5.9814e-06
6.0059e-06
5.9814e-06
6.0059e-06
5.9814e-06
5.9814e-06
5.9814e-06
6.0059e-06
5.9814e-06
6.0059e-06
5.9814e-06
6.0059e-06
5.9814e-06
6.0059e-06
5.9814e-06
5.9814e-06
5.957e-06
5.9814e-06
5.957e-06
6.0059e-06
5.9814e-06
5.9814e-06
5.9814e-06
5.9814e-06
5.9814e-06
5.9814e-06
5.957e-06
5.9814e-06
5.957e-06
5.9814e-06
5.957e-06
5.9814e-06
5.9814e-06
5.9814e-06
5.957e-06
5.9814e-06
5.957e-06
5.9814e-06
5.9814e-06
5.9814e-06
5.957e-06
5.9814e-06
5.957e-06
5.9814e-06
5.957e-06
5.9814e-06
5.957e-06
5.9814e-06
5.957e-06
5.9814e-06
5.957e-06
5.9814e-06
5.957e-06
5.957e-06
5.957e-06
5.9814e-06
5.957e-06
5.957e-06
5.957e-06
5.9814e-06
5.957e-06
5.957e-06
5.957e-06
5.957e-06
5.957e-06
5.957e-06
5.957e-06
5.957e-06
5.957e-06
5.957e-06
5.957e-06
5.957e-06
5.957e-06
5.957e-06
5.9326e-06
5.957e-06
5.9326e-06
5.957e-06
5.9326e-06
5.957e-06
5.9326e-06
5.957e-06
5.957e-06
5.957e-06
5.9326e-06
5.957e-06
5.957e-06
5.957e-06
5.9326e-06
5.957e-06
5.9326e-06
5.957e-06
5.9326e-06
5.9326e-06
5.9326e-06
5.957e-06
5.957e-06
5.957e-06
5.9326e-06
5.9326e-06
5.9326e-06
5.957e-06
5.9326e-06
5.957e-06
5.9326e-06
5.9326e-06
5.9326e-06
5.9326e-06
5.9326e-06
5.9326e-06
5.9326e-06
5.9326e-06
5.9326e-06
5.957e-06
5.9326e-06
5.9326e-06
5.9326e-06
5.957e-06
5.9326e-06
5.9326e-06
5.9326e-06
5.9326e-06
5.9326e-06
5.9326e-06
5.9326e-06
5.9326e-06
5.9326e-06
5.9326e-06
5.9326e-06
5.9326e-06
5.9326e-06
5.9326e-06
5.9326e-06
5.9326e-06
5.9326e-06
5.9326e-06
5.9326e-06
5.9326e-06
5.9326e-06
5.9326e-06
5.9326e-06
5.9326e-06
5.9326e-06
5.9326e-06
5.9326e-06
5.9326e-06
5.9326e-06
5.9326e-06
5.9326e-06
5.9326e-06
5.9326e-06
5.9326e-06
5.9326e-06
5.9326e-06
5.9326e-06
5.9326e-06
5.9326e-06
5.9326e-06
5.9326e-06
5.9326e-06
5.9326e-06
5.9326e-06
5.9326e-06
5.9326e-06
5.9326e-06
5.9326e-06
5.9326e-06
5.9326e-06
5.9326e-06
5.9326e-06
5.9326e-06
5.9326e-06
5.9326e-06
5.9326e-06
5.9326e-06
5.9326e-06
5.9326e-06
5.9326e-06
5.9326e-06
5.9326e-06
5.9326e-06
5.9326e-06
5.9326e-06
5.9326e-06
5.9326e-06
5.9326e-06
5.9326e-06
5.9326e-06
5.9326e-06
5.9326e-06
5.9326e-06
5.9326e-06
5.9326e-06
5.9326e-06
5.9326e-06
5.9326e-06
5.9326e-06
5.9326e-06
5.9326e-06
5.9326e-06
5.9326e-06
5.9326e-06
5.9326e-06
5.9326e-06
5.9326e-06
5.9326e-06
5.9326e-06
5.9326e-06
5.9326e-06
5.9326e-06
5.9326e-06
5.9326e-06
5.9326e-06
5.9326e-06
5.9326e-06
5.9326e-06
5.9326e-06
5.9326e-06
5.9326e-06
5.9326e-06
5.9326e-06
5.9326e-06
5.9326e-06
5.9326e-06
5.9326e-06
5.9326e-06
5.9326e-06
5.9326e-06
5.9326e-06
5.9326e-06
5.9326e-06
5.9326e-06
5.9326e-06
5.9326e-06
5.9326e-06
5.9326e-06
5.9326e-06
5.9326e-06
5.9326e-06
5.9326e-06
5.9326e-06
5.9326e-06
5.9326e-06
5.9326e-06
5.9326e-06
5.9326e-06
5.9326e-06
5.9326e-06
5.9326e-06
5.9326e-06
5.9326e-06
5.9326e-06
5.9326e-06
5.9326e-06
5.9326e-06
5.9326e-06
5.9326e-06
5.9326e-06
5.9326e-06
5.9326e-06
5.9326e-06
5.9326e-06
5.9326e-06
5.9326e-06
5.9326e-06
5.9326e-06
5.9326e-06
5.9326e-06
5.9326e-06
5.9326e-06
5.9326e-06
5.9326e-06
5.9326e-06
5.9326e-06
5.9326e-06
5.9326e-06
5.9326e-06
5.9326e-06
5.9326e-06
5.9326e-06
5.9326e-06
5.9326e-06
5.9326e-06
5.9326e-06
5.9326e-06
5.9326e-06
5.9326e-06
5.9326e-06
5.9326e-06
5.9326e-06
5.9326e-06
5.9326e-06
5.9326e-06
5.9326e-06
5.9082e-06
5.9326e-06
5.9326e-06
5.9326e-06
5.9326e-06
5.9326e-06
5.9326e-06
5.9326e-06
5.9326e-06
5.9326e-06
5.9326e-06
5.9326e-06
5.9326e-06
5.9326e-06
5.9082e-06
5.9326e-06
5.9082e-06
5.9326e-06
5.9326e-06
5.9082e-06
5.9326e-06
5.9326e-06
5.9326e-06
5.9326e-06
5.9326e-06
5.9326e-06
5.9326e-06
5.9326e-06
5.9326e-06
5.9326e-06
5.9082e-06
5.9326e-06
5.9326e-06
5.9326e-06
5.9326e-06
5.9326e-06
5.9082e-06
5.9326e-06
5.9326e-06
5.9326e-06
5.9326e-06
5.9326e-06
5.9082e-06
5.9326e-06
5.9082e-06
5.9082e-06
5.9326e-06
5.9082e-06
5.9082e-06
5.9326e-06
5.9082e-06
5.9082e-06
5.9082e-06
5.9082e-06
5.9082e-06
5.9082e-06
5.9082e-06
5.9082e-06
5.9326e-06
5.9082e-06
5.9082e-06
5.9082e-06
5.9082e-06
5.9326e-06
5.9082e-06
5.9082e-06
5.9082e-06
5.9082e-06
5.9082e-06
5.9082e-06
5.9082e-06
5.9082e-06
5.9082e-06
5.9082e-06
5.9082e-06
5.9082e-06
5.9082e-06
5.9082e-06
5.9082e-06
5.9082e-06
5.9082e-06
5.9082e-06
5.9082e-06
5.9082e-06
5.8838e-06
5.8838e-06
5.9082e-06
5.9082e-06
5.9082e-06
5.8838e-06
5.9082e-06
5.9082e-06
5.9082e-06
5.9082e-06
5.9082e-06
5.9082e-06
5.8838e-06
5.8838e-06
5.9082e-06
5.8838e-06
5.8838e-06
5.8838e-06
5.9082e-06
5.9082e-06
5.8838e-06
5.8838e-06
5.8838e-06
5.8838e-06
5.8838e-06
5.8838e-06
5.8838e-06
5.8838e-06
5.8838e-06
5.8838e-06
5.8838e-06
5.8838e-06
5.8838e-06
5.8838e-06
5.8838e-06
5.8838e-06
5.8838e-06
5.8838e-06
5.8838e-06
5.8838e-06
5.8838e-06
5.8838e-06
5.8838e-06
5.8838e-06
5.8838e-06
5.8838e-06
5.8838e-06
5.8838e-06
5.8838e-06
5.8838e-06
5.8838e-06
5.8838e-06
5.8838e-06
5.8838e-06
5.8838e-06
5.8838e-06
5.8838e-06
5.8838e-06
5.8838e-06
5.8594e-06
5.8594e-06
5.8838e-06
5.8838e-06
5.8594e-06
5.8838e-06
5.8838e-06
5.8838e-06
5.8838e-06
5.8838e-06
5.8838e-06
5.8838e-06
5.8838e-06
5.8838e-06
5.8838e-06
5.8838e-06
5.8594e-06
5.8594e-06
5.8594e-06
5.8594e-06
5.8838e-06
5.8594e-06
5.8838e-06
5.8838e-06
5.8838e-06
5.8838e-06
5.8594e-06
5.8838e-06
5.8838e-06
5.8838e-06
5.8838e-06
5.8838e-06
5.8594e-06
5.8594e-06
5.8594e-06
5.8594e-06
5.8594e-06
5.8838e-06
5.8838e-06
5.8838e-06
5.8838e-06
5.8594e-06
5.8594e-06
5.8838e-06
5.8594e-06
5.8594e-06
5.8594e-06
5.8594e-06
5.8594e-06
5.8594e-06
5.8594e-06
5.8594e-06
5.8594e-06
5.8594e-06
5.8594e-06
5.8838e-06
5.8594e-06
5.8594e-06
5.8594e-06
5.8594e-06
5.8594e-06
5.8594e-06
5.8594e-06
5.8594e-06
5.8594e-06
5.8594e-06
5.8594e-06
5.8594e-06
5.8838e-06
5.8594e-06
5.8594e-06
5.8594e-06
5.8594e-06
5.8594e-06
5.8594e-06
5.8594e-06
5.8594e-06
5.8594e-06
5.8594e-06
5.8594e-06
5.8594e-06
5.8594e-06
5.8594e-06
5.8594e-06
5.8594e-06
5.8594e-06
5.8594e-06
5.8838e-06
5.8594e-06
5.8594e-06
5.8594e-06
5.8594e-06
5.8594e-06
5.8594e-06
5.8594e-06
5.8594e-06
5.8594e-06
5.8594e-06
5.8594e-06
5.8594e-06
5.8594e-06
5.8594e-06
5.8594e-06
5.8594e-06
5.8594e-06
5.8594e-06
5.8594e-06
5.8594e-06
5.8594e-06
5.8594e-06
5.8594e-06
5.8594e-06
5.8594e-06
5.8594e-06
5.8594e-06
5.8594e-06
5.8594e-06
5.8594e-06
5.8594e-06
5.8594e-06
5.8594e-06
5.8594e-06
5.8594e-06
5.8594e-06
5.8594e-06
5.8594e-06
5.8594e-06
5.8594e-06
5.8594e-06
5.8594e-06
5.835e-06
5.8594e-06
5.8594e-06
5.8594e-06
5.8594e-06
5.8594e-06
5.8594e-06
5.8594e-06
5.8594e-06
5.8594e-06
5.8594e-06
5.8594e-06
5.8594e-06
5.8594e-06
5.8594e-06
5.835e-06
5.8594e-06
5.8594e-06
5.8594e-06
5.8594e-06
5.8594e-06
5.8594e-06
5.8594e-06
5.8594e-06
5.835e-06
5.8594e-06
5.835e-06
5.8594e-06
5.8594e-06
5.8594e-06
5.835e-06
5.835e-06
5.8594e-06
5.8594e-06
5.8594e-06
5.8594e-06
5.835e-06
5.8594e-06
5.8594e-06
5.8594e-06
5.8594e-06
5.8594e-06
5.8594e-06
5.8594e-06
5.835e-06
5.8594e-06
5.8594e-06
5.8594e-06
5.8594e-06
5.8594e-06
5.835e-06
5.8594e-06
5.835e-06
5.835e-06
5.8594e-06
5.8594e-06
5.8594e-06
5.8594e-06
5.835e-06
5.835e-06
5.835e-06
5.8594e-06
5.835e-06
5.835e-06
5.8594e-06
5.8594e-06
5.8594e-06
5.835e-06
5.835e-06
5.8594e-06
5.835e-06
5.8594e-06
5.835e-06
5.835e-06
5.835e-06
5.835e-06
5.835e-06
5.8594e-06
5.835e-06
5.835e-06
5.835e-06
5.835e-06
5.835e-06
5.835e-06
5.835e-06
5.835e-06
5.835e-06
5.835e-06
5.835e-06
5.8594e-06
5.835e-06
5.8594e-06
5.835e-06
5.835e-06
5.835e-06
5.8594e-06
5.835e-06
5.835e-06
5.835e-06
5.8594e-06
5.835e-06
5.835e-06
5.835e-06
5.835e-06
5.835e-06
5.8594e-06
5.835e-06
5.835e-06
5.835e-06
5.835e-06
5.835e-06
5.835e-06
5.835e-06
5.835e-06
5.835e-06
5.835e-06
5.835e-06
5.835e-06
5.835e-06
5.835e-06
5.835e-06
5.8594e-06
5.835e-06
5.835e-06
5.835e-06
5.835e-06
5.835e-06
5.835e-06
5.8105e-06
5.835e-06
5.835e-06
5.835e-06
5.835e-06
5.835e-06
5.835e-06
5.835e-06
5.835e-06
5.835e-06
5.835e-06
5.835e-06
5.835e-06
5.835e-06
5.835e-06
5.835e-06
5.835e-06
5.835e-06
5.8105e-06
5.8105e-06
5.835e-06
5.835e-06
5.835e-06
5.835e-06
5.835e-06
5.835e-06
5.835e-06
5.835e-06
5.835e-06
5.835e-06
5.835e-06
5.835e-06
5.835e-06
5.835e-06
5.835e-06
5.835e-06
5.835e-06
5.835e-06
5.835e-06
5.835e-06
5.835e-06
5.835e-06
5.835e-06
5.835e-06
5.835e-06
5.835e-06
5.835e-06
5.835e-06
5.835e-06
5.835e-06
5.835e-06
5.835e-06
5.835e-06
5.835e-06
5.835e-06
5.835e-06
5.835e-06
5.835e-06
5.835e-06
5.835e-06
5.8105e-06
5.835e-06
5.835e-06
5.835e-06
5.835e-06
5.835e-06
5.835e-06
5.835e-06
5.835e-06
5.835e-06
5.8105e-06
5.835e-06
5.835e-06
5.835e-06
5.835e-06
5.835e-06
5.835e-06
5.835e-06
5.835e-06
5.835e-06
5.835e-06
5.835e-06
5.835e-06
5.835e-06
5.835e-06
5.835e-06
5.835e-06
5.835e-06
5.835e-06
5.835e-06
5.835e-06
5.8105e-06
5.835e-06
5.835e-06
5.835e-06
5.835e-06
5.8105e-06
5.835e-06
5.835e-06
5.835e-06
5.835e-06
5.835e-06
5.835e-06
5.835e-06
5.835e-06
5.835e-06
5.835e-06
5.835e-06
5.8105e-06
5.835e-06
5.835e-06
5.835e-06
5.835e-06
5.835e-06
5.835e-06
5.835e-06
5.835e-06
5.835e-06
5.8105e-06
5.835e-06
5.835e-06
5.835e-06
5.835e-06
5.835e-06
5.8105e-06
5.835e-06
5.835e-06
5.835e-06
5.835e-06
5.835e-06
5.835e-06
5.835e-06
5.8105e-06
5.835e-06
5.835e-06
5.835e-06
5.8105e-06
5.835e-06
5.835e-06
5.835e-06
5.835e-06
5.835e-06
5.835e-06
5.835e-06
5.835e-06
5.835e-06
5.835e-06
5.835e-06
5.835e-06
5.835e-06
5.835e-06
5.835e-06
5.835e-06
5.835e-06
5.835e-06
5.835e-06
5.835e-06
5.835e-06
5.835e-06
5.835e-06
5.835e-06
5.835e-06
5.835e-06
5.835e-06
5.8105e-06
5.835e-06
5.835e-06
5.835e-06
5.835e-06
5.835e-06
5.835e-06
5.835e-06
5.835e-06
5.835e-06
5.835e-06
5.835e-06
5.835e-06
5.835e-06
5.835e-06
5.835e-06
5.835e-06
5.835e-06
5.835e-06
5.835e-06
5.8105e-06
5.835e-06
5.835e-06
5.835e-06
5.8105e-06
5.835e-06
5.835e-06
5.835e-06
5.8105e-06
5.835e-06
5.835e-06
5.835e-06
5.835e-06
5.835e-06
5.835e-06
5.835e-06
5.835e-06
5.835e-06
5.835e-06
5.835e-06
5.835e-06
5.835e-06
5.835e-06
5.835e-06
5.835e-06
5.835e-06
5.835e-06
5.835e-06
5.835e-06
5.8105e-06
5.835e-06
5.835e-06
5.835e-06
5.835e-06
5.835e-06
5.835e-06
5.835e-06
5.835e-06
5.835e-06
5.835e-06
5.835e-06
5.835e-06
5.8105e-06
5.835e-06
5.8105e-06
5.835e-06
5.8105e-06
5.835e-06
5.835e-06
5.835e-06
5.8105e-06
5.835e-06
5.835e-06
5.835e-06
5.835e-06
5.8105e-06
5.835e-06
5.835e-06
5.835e-06
5.835e-06
5.835e-06
5.835e-06
5.835e-06
5.835e-06
5.8105e-06
5.835e-06
5.8105e-06
5.835e-06
5.8105e-06
5.835e-06
5.8105e-06
5.835e-06
5.8105e-06
5.835e-06
5.8105e-06
5.8105e-06
5.835e-06
5.835e-06
5.8105e-06
5.8105e-06
5.835e-06
5.8105e-06
5.8105e-06
5.835e-06
5.8105e-06
5.835e-06
5.8105e-06
5.8105e-06
5.8105e-06
5.835e-06
5.8105e-06
5.835e-06
5.8105e-06
5.8105e-06
5.8105e-06
5.835e-06
5.8105e-06
5.835e-06
5.8105e-06
5.835e-06
5.8105e-06
5.835e-06
5.8105e-06
5.8105e-06
5.8105e-06
5.835e-06
5.8105e-06
5.8105e-06
5.8105e-06
5.835e-06
5.8105e-06
5.8105e-06
5.8105e-06
5.835e-06
5.8105e-06
5.8105e-06
5.8105e-06
5.8105e-06
5.8105e-06
5.835e-06
5.8105e-06
5.835e-06
5.8105e-06
5.8105e-06
5.8105e-06
5.835e-06
5.8105e-06
5.8105e-06
5.8105e-06
5.8105e-06
5.8105e-06
5.8105e-06
5.8105e-06
5.8105e-06
5.8105e-06
5.8105e-06
5.8105e-06
5.8105e-06
5.8105e-06
5.8105e-06
5.8105e-06
5.8105e-06
5.7861e-06
5.835e-06
5.8105e-06
5.835e-06
5.8105e-06
5.8105e-06
5.8105e-06
5.835e-06
5.8105e-06
5.8105e-06
5.8105e-06
5.8105e-06
5.7861e-06
5.8105e-06
5.8105e-06
5.8105e-06
5.8105e-06
5.8105e-06
5.8105e-06
5.8105e-06
5.8105e-06
5.8105e-06
5.8105e-06
5.8105e-06
5.8105e-06
5.8105e-06
5.8105e-06
5.8105e-06
5.8105e-06
5.8105e-06
5.8105e-06
5.835e-06
5.8105e-06
5.8105e-06
5.7861e-06
5.8105e-06
5.8105e-06
5.8105e-06
5.8105e-06
5.8105e-06
5.8105e-06
5.8105e-06
5.8105e-06
5.8105e-06
5.8105e-06
5.8105e-06
5.8105e-06
5.8105e-06
5.8105e-06
5.8105e-06
5.7861e-06
5.8105e-06
5.8105e-06
5.8105e-06
5.7861e-06
5.8105e-06
5.8105e-06
5.8105e-06
5.8105e-06
5.8105e-06
5.7861e-06
5.8105e-06
5.7861e-06
5.8105e-06
5.7861e-06
5.8105e-06
5.8105e-06
5.8105e-06
5.7861e-06
5.8105e-06
5.7861e-06
5.8105e-06
5.7861e-06
5.8105e-06
5.7861e-06
5.8105e-06
5.8105e-06
5.8105e-06
5.7861e-06
5.8105e-06
5.7861e-06
5.8105e-06
5.7861e-06
5.8105e-06
5.7861e-06
5.8105e-06
5.7861e-06
5.8105e-06
5.7861e-06
5.8105e-06
5.7861e-06
5.8105e-06
5.7861e-06
5.8105e-06
5.8105e-06
5.8105e-06
5.7861e-06
5.8105e-06
5.7861e-06
5.8105e-06
5.7861e-06
5.8105e-06
5.7861e-06
5.8105e-06
5.7861e-06
5.8105e-06
5.7861e-06
5.8105e-06
5.7861e-06
5.7861e-06
5.7861e-06
5.8105e-06
5.7861e-06
5.7861e-06
5.8105e-06
5.8105e-06
5.7861e-06
5.8105e-06
5.7861e-06
5.8105e-06
5.7861e-06
5.8105e-06
5.7861e-06
5.8105e-06
5.7861e-06
5.8105e-06
5.7861e-06
5.8105e-06
5.7861e-06
5.8105e-06
5.7861e-06
5.8105e-06
5.7861e-06
5.8105e-06
5.7861e-06
5.8105e-06
5.7861e-06
5.8105e-06
5.7861e-06
5.8105e-06
5.7861e-06
5.7861e-06
5.7861e-06
5.8105e-06
5.7861e-06
5.7861e-06
5.7617e-06
5.8105e-06
5.7861e-06
5.8105e-06
5.7861e-06
5.7861e-06
5.7861e-06
5.7861e-06
5.7861e-06
5.7861e-06
5.7861e-06
5.8105e-06
5.7861e-06
5.8105e-06
5.7861e-06
5.7861e-06
5.7861e-06
5.8105e-06
5.7861e-06
5.7861e-06
5.7861e-06
5.7861e-06
5.7861e-06
5.8105e-06
5.7617e-06
5.7861e-06
5.7861e-06
5.8105e-06
5.7861e-06
5.7861e-06
5.7617e-06
5.7861e-06
5.7861e-06
5.8105e-06
5.7617e-06
5.7861e-06
5.7617e-06
5.7861e-06
5.7617e-06
5.7861e-06
5.7861e-06
5.7861e-06
5.7861e-06
5.7861e-06
5.7617e-06
5.7861e-06
5.7861e-06
5.7861e-06
5.7617e-06
5.7861e-06
5.7617e-06
5.7861e-06
5.7861e-06
5.7861e-06
5.7617e-06
5.7861e-06
5.7617e-06
5.7861e-06
5.7617e-06
5.7861e-06
5.7617e-06
5.7861e-06
5.7617e-06
5.7861e-06
5.7861e-06
5.7861e-06
5.7617e-06
5.7861e-06
5.7617e-06
5.7861e-06
5.7617e-06
5.7861e-06
5.7617e-06
5.7861e-06
5.7617e-06
5.7861e-06
5.7861e-06
5.7861e-06
5.7617e-06
5.7861e-06
5.7617e-06
5.7861e-06
5.7617e-06
5.7861e-06
5.7617e-06
5.7861e-06
5.7617e-06
5.7861e-06
5.7617e-06
5.7861e-06
5.7617e-06
5.7861e-06
5.7617e-06
5.7861e-06
5.7617e-06
5.8105e-06
5.7617e-06
5.7861e-06
5.7617e-06
5.7861e-06
5.7617e-06
5.7861e-06
5.7861e-06
5.7861e-06
5.7617e-06
5.7861e-06
5.7861e-06
5.7861e-06
5.7617e-06
5.7861e-06
5.7617e-06
5.7861e-06
5.7617e-06
5.7861e-06
5.7861e-06
5.7861e-06
5.7617e-06
5.7861e-06
5.7861e-06
5.7861e-06
5.7617e-06
5.7861e-06
5.7617e-06
5.7861e-06
5.7617e-06
5.7861e-06
5.7861e-06
5.7861e-06
5.7861e-06
5.7861e-06
5.7617e-06
5.7861e-06
5.7861e-06
5.7861e-06
5.7617e-06
5.7861e-06
5.7861e-06
5.7861e-06
5.7617e-06
5.7861e-06
5.7861e-06
5.8105e-06
5.7861e-06
5.7861e-06
5.7861e-06
5.8105e-06
5.7861e-06
5.8105e-06
5.7861e-06
5.8105e-06
5.7861e-06
5.8105e-06
5.7861e-06
5.8105e-06
5.7861e-06
5.8105e-06
5.7861e-06
5.8105e-06
5.7861e-06
5.8105e-06
5.8105e-06
5.8105e-06
5.8105e-06
5.835e-06
5.8105e-06
5.835e-06
5.8105e-06
5.8105e-06
5.8105e-06
5.835e-06
5.8105e-06
5.835e-06
5.8105e-06
5.835e-06
5.8105e-06
5.835e-06
5.8105e-06
5.835e-06
5.8105e-06
5.835e-06
5.8105e-06
5.835e-06
5.8105e-06
5.835e-06
5.835e-06
5.835e-06
5.8105e-06
5.835e-06
5.835e-06
5.8594e-06
5.835e-06
5.8594e-06
5.835e-06
5.8594e-06
5.835e-06
5.8594e-06
5.835e-06
5.8594e-06
5.835e-06
5.8594e-06
5.8594e-06
5.8594e-06
5.8594e-06
5.8594e-06
5.835e-06
5.8838e-06
5.835e-06
5.8594e-06
5.8594e-06
5.8594e-06
5.8594e-06
5.8594e-06
5.835e-06
5.8838e-06
5.8594e-06
5.8838e-06
5.835e-06
5.8838e-06
5.8594e-06
5.8838e-06
5.835e-06
5.8838e-06
5.8594e-06
5.8838e-06
5.8594e-06
5.8838e-06
5.8594e-06
5.8838e-06
5.8594e-06
5.8838e-06
5.8594e-06
5.8838e-06
5.8594e-06
5.9082e-06
5.8594e-06
5.8838e-06
5.8594e-06
5.9082e-06
5.8594e-06
5.8838e-06
5.8594e-06
5.9082e-06
5.8594e-06
5.9082e-06
5.8594e-06
5.8838e-06
5.8594e-06
5.9082e-06
5.8838e-06
5.9082e-06
5.8594e-06
5.9082e-06
5.8594e-06
5.9082e-06
5.8838e-06
5.8838e-06
5.8594e-06
5.9082e-06
5.8594e-06
5.8838e-06
5.8594e-06
5.9082e-06
5.8838e-06
5.8838e-06
5.8838e-06
5.9082e-06
5.8594e-06
5.9082e-06
5.8838e-06
5.9082e-06
5.8838e-06
5.9082e-06
5.8594e-06
5.9082e-06
5.8838e-06
5.8838e-06
5.8838e-06
5.9082e-06
5.8838e-06
5.9082e-06
5.8838e-06
5.9082e-06
5.8838e-06
5.8838e-06
5.8838e-06
5.9082e-06
5.8838e-06
5.9082e-06
5.8838e-06
5.9082e-06
5.8838e-06
5.9082e-06
5.8594e-06
5.9082e-06
5.8838e-06
5.8838e-06
5.8594e-06
5.9082e-06
5.8594e-06
5.9082e-06
5.8594e-06
5.9082e-06
5.8594e-06
5.9082e-06
5.8594e-06
5.9082e-06
5.8594e-06
5.8838e-06
5.8594e-06
5.8838e-06
5.8594e-06
5.9082e-06
5.8594e-06
5.9082e-06
5.8594e-06
5.9082e-06
5.8594e-06
5.9082e-06
5.8594e-06
5.8838e-06
5.8594e-06
5.9082e-06
5.8594e-06
5.9082e-06
5.8594e-06
5.9082e-06
5.8594e-06
5.8838e-06
5.8594e-06
5.9082e-06
5.8594e-06
5.8838e-06
5.8594e-06
5.9082e-06
5.8594e-06
5.9082e-06
5.8594e-06
5.8838e-06
5.8594e-06
5.8838e-06
5.8594e-06
5.8838e-06
5.8594e-06
5.8838e-06
5.8594e-06
5.8838e-06
5.8594e-06
5.8838e-06
5.8594e-06
5.9082e-06
5.8594e-06
5.8838e-06
5.8594e-06
5.8838e-06
5.8594e-06
5.8838e-06
5.8594e-06
5.8838e-06
5.8594e-06
5.8838e-06
5.8594e-06
5.8838e-06
5.8594e-06
5.8838e-06
5.835e-06
5.8838e-06
5.8594e-06
5.8838e-06
5.835e-06
5.8838e-06
5.8594e-06
5.8594e-06
5.8594e-06
5.8838e-06
5.8594e-06
5.8838e-06
5.835e-06
5.8838e-06
5.835e-06
5.8838e-06
5.835e-06
5.8838e-06
5.8594e-06
5.8594e-06
5.835e-06
5.8838e-06
5.8594e-06
5.8838e-06
5.835e-06
5.8838e-06
5.8594e-06
5.8838e-06
5.835e-06
5.8838e-06
5.835e-06
5.8838e-06
5.835e-06
5.8838e-06
5.835e-06
5.8594e-06
5.835e-06
5.8838e-06
5.835e-06
5.8594e-06
5.835e-06
5.8594e-06
5.835e-06
5.8594e-06
5.835e-06
5.8594e-06
5.835e-06
5.8594e-06
5.835e-06
5.8594e-06
5.835e-06
5.8594e-06
5.835e-06
5.8838e-06
5.835e-06
5.8838e-06
5.835e-06
5.8838e-06
5.835e-06
5.8594e-06
5.835e-06
5.8594e-06
5.835e-06
5.8594e-06
5.835e-06
5.8594e-06
5.835e-06
5.8838e-06
5.835e-06
5.8838e-06
5.835e-06
5.8594e-06
5.835e-06
5.8594e-06
5.835e-06
5.8594e-06
5.835e-06
5.8594e-06
5.835e-06
5.8594e-06
5.835e-06
5.8838e-06
5.835e-06
5.8838e-06
5.8594e-06
5.8594e-06
5.835e-06
5.8838e-06
5.8594e-06
5.8594e-06
5.835e-06
5.8838e-06
5.8594e-06
5.8838e-06
5.835e-06
5.8838e-06
5.8594e-06
5.8838e-06
5.8594e-06
5.8838e-06
5.8594e-06
5.8838e-06
5.8594e-06
5.8838e-06
5.8594e-06
5.8838e-06
5.8594e-06
5.8838e-06
5.8594e-06
5.8838e-06
5.8594e-06
5.8838e-06
5.8594e-06
5.8838e-06
5.8594e-06
5.8838e-06
5.8594e-06
5.8838e-06
5.8594e-06
5.9082e-06
5.8594e-06
5.9082e-06
5.8594e-06
5.9082e-06
5.8838e-06
5.9082e-06
5.8594e-06
5.9082e-06
5.8594e-06
5.9082e-06
5.8838e-06
5.9082e-06
5.8838e-06
5.9082e-06
5.8838e-06
5.9082e-06
5.8838e-06
5.9082e-06
5.8838e-06
5.9082e-06
5.8838e-06
5.9326e-06
5.8838e-06
5.9326e-06
5.8838e-06
