-0.07324219
-0.06445312
-0.07324219
-0.08496094
-0.08789062
-0.08496094
-0.09375
-0.10839844
-0.08789062
-0.08203125
-0.0703125
-0.04980469
-0.03808594
-0.02636719
-0.02050781
0.0
0.00292969
-0.0234375
0.00292969
-0.01464844
-0.01464844
-0.03222656
-0.0234375
-0.02929688
-0.03808594
-0.03222656
-0.04101562
-0.04101562
-0.02929688
-0.03808594
-0.02050781
-0.01757812
-0.03222656
-0.03515625
-0.02929688
-0.03515625
-0.04394531
-0.04394531
-0.04394531
-0.05859375
-0.046875
-0.03222656
-0.03808594
-0.0234375
-0.01171875
-0.03222656
-0.0234375
-0.02050781
-0.01757812
-0.11425781
-0.35449219
-0.12011719
0.04394531
0.02050781
0.00292969
0.0
-0.00585937
-0.01464844
-0.0234375
-0.03515625
-0.05566406
-0.0234375
-0.03515625
-0.04101562
-0.03808594
-0.04980469
-0.0703125
-0.06445312
-0.09082031
-0.08496094
-0.08203125
-0.0703125
-0.05566406
-0.046875
-0.05566406
-0.05273438
-0.00878906
0.0
0.00292969
0.01171875
0.00292969
0.0
0.00585937
-0.01171875
-0.02050781
-0.05859375
-0.03222656
-0.06445312
-0.00292969
0.02050781
-0.00878906
-0.01757812
-0.02636719
-0.02636719
-0.046875
-0.03222656
-0.0234375
-0.02050781
0.0
-0.01464844
-0.03808594
-0.04101562
-0.01757812
-0.046875
-0.07617188
-0.07324219
0.0234375
0.00292969
-0.01171875
-0.01171875
-0.0234375
-0.03222656
-0.02929688
-0.13183594
-0.33691406
-0.11425781
0.09667969
0.04394531
0.00878906
0.0
-0.01757812
0.00292969
-0.00878906
-0.03808594
-0.05566406
-0.04394531
-0.03222656
-0.01757812
-0.12011719
-0.04101562
-0.00292969
-0.03222656
-0.06445312
-0.07910156
-0.09667969
-0.07910156
-0.05859375
-0.05859375
-0.05273438
-0.03222656
-0.00878906
-0.00878906
-0.02050781
0.00585937
-0.00585937
-0.01171875
-0.00585937
-0.04101562
-0.03222656
-0.03808594
-0.05566406
-0.00585937
-0.02050781
-0.05273438
-0.06445312
-0.15234375
-0.00292969
0.04980469
0.03808594
0.01464844
0.0
0.00292969
-0.04101562
-0.00585937
-0.02636719
-0.03222656
-0.046875
-0.03222656
-0.03515625
-0.03808594
-0.01464844
-0.0703125
-0.04394531
-0.046875
-0.02050781
-0.00878906
-0.01464844
0.00292969
-0.00878906
-0.02929688
-0.04980469
-0.24609375
-0.25488281
0.02636719
0.06445312
0.00292969
-0.01171875
-0.01171875
-0.0234375
-0.04394531
-0.04101562
-0.02636719
-0.04101562
-0.04980469
-0.05566406
-0.04101562
-0.07324219
-0.07617188
-0.06445312
-0.0703125
-0.08496094
-0.07617188
-0.07910156
-0.07910156
-0.0703125
-0.0703125
-0.02636719
-0.00585937
-0.00292969
-0.00292969
0.0
0.00878906
0.01757812
0.00292969
0.00292969
-0.00292969
-0.01464844
-0.01171875
-0.0234375
-0.01464844
-0.01757812
-0.02929688
-0.01757812
-0.00292969
-0.00292969
0.0
-0.00878906
-0.00878906
-0.01171875
-0.00585937
-0.0234375
-0.01464844
-0.02050781
-0.02050781
-0.01757812
-0.03515625
-0.01464844
-0.04394531
-0.04101562
-0.03515625
-0.05273438
-0.0703125
-0.046875
-0.03515625
-0.01757812
-0.02636719
-0.03808594
-0.03808594
-0.03808594
-0.03515625
-0.07910156
-0.30175781
-0.140625
0.06738281
0.01757812
-0.02929688
-0.03222656
-0.00292969
-0.00878906
-0.05273438
-0.04980469
-0.07324219
-0.04101562
-0.05566406
-0.06152344
-0.0703125
-0.09375
-0.08496094
-0.07910156
-0.09375
-0.17871094
-0.08789062
-0.07910156
-0.09375
-0.10546875
-0.05273438
-0.07910156
-0.04980469
-0.04101562
-0.03808594
-0.02050781
0.0
-0.03222656
-0.02929688
-0.03515625
-0.03808594
-0.046875
-0.03222656
-0.04980469
-0.04101562
-0.02636719
-0.02929688
-0.02636719
-0.01171875
-0.02050781
-0.03222656
-0.01757812
-0.03808594
-0.01757812
-0.00292969
-0.02050781
-0.00878906
-0.01171875
-0.0234375
-0.01464844
-0.02050781
-0.02929688
-0.04101562
-0.0234375
-0.01464844
-0.04101562
-0.01171875
-0.00585937
-0.00292969
0.00878906
-0.00585937
0.00292969
-0.00292969
-0.00585937
0.00878906
-0.14355469
-0.13769531
0.11132812
0.07617188
0.0234375
0.00292969
0.00292969
0.00292969
-0.00292969
-0.01757812
-0.02050781
-0.03222656
-0.02636719
-0.03808594
-0.06738281
-0.06738281
-0.0703125
-0.05859375
-0.08789062
-0.09375
-0.09082031
-0.09375
-0.08789062
-0.09082031
-0.08203125
-0.05273438
-0.05273438
-0.0234375
-0.01464844
0.0
-0.00292969
0.01757812
0.00292969
-0.03222656
-0.02636719
-0.03515625
-0.06738281
-0.04394531
-0.07324219
-0.046875
-0.02050781
0.00878906
0.02636719
0.04980469
0.03808594
0.05273438
0.04394531
0.06445312
0.04394531
0.0
0.03808594
0.01757812
0.04980469
0.04394531
0.01757812
-0.02636719
-0.04980469
-0.09960938
-0.05859375
-0.24316406
-0.24609375
0.03808594
0.04980469
0.03808594
-0.06738281
-0.06738281
-0.22558594
-0.15527344
-0.140625
0.16699219
0.08203125
0.00878906
-0.04101562
-0.08203125
-0.10546875
-0.11425781
-0.12597656
-0.13183594
-0.15234375
-0.15820312
-0.14355469
-0.16699219
-0.16699219
-0.09082031
-0.15527344
-0.04394531
0.140625
0.0234375
-0.046875
-0.01171875
0.01757812
-0.02050781
-0.03808594
-0.02929688
-0.03515625
-0.06152344
-0.05273438
-0.08203125
-0.08203125
-0.0234375
-0.01171875
-0.01757812
-0.00585937
-0.05273438
-0.11425781
-0.07324219
0.11425781
0.02929688
0.02050781
0.00292969
-0.0234375
-0.02929688
-0.01171875
-0.00878906
-0.00292969
-0.01171875
-0.00878906
-0.0234375
-0.0234375
-0.02929688
-0.05273438
-0.22851562
-0.1171875
0.02929688
0.0
-0.01464844
-0.02636719
-0.02050781
-0.02050781
-0.03808594
-0.05273438
-0.046875
-0.01464844
-0.04980469
-0.046875
-0.03222656
-0.046875
-0.046875
-0.06152344
-0.04394531
-0.05859375
-0.07617188
-0.09082031
-0.04394531
-0.09082031
-0.08496094
-0.0703125
-0.08789062
-0.00585937
-0.01757812
-0.05859375
0.046875
0.04980469
0.03515625
0.02050781
-0.10546875
-0.2109375
0.04394531
0.17578125
0.13183594
0.04980469
-0.02050781
-0.02929688
-0.03808594
-0.046875
-0.1875
-0.1640625
-0.02050781
0.08203125
0.15234375
0.0
-0.13476562
-0.14648438
-0.05859375
0.06445312
0.02636719
-0.03515625
-0.046875
-0.06738281
-0.02636719
-0.08496094
-0.19042969
-0.32226562
-0.16699219
0.08496094
0.09960938
0.046875
0.0
-0.02636719
-0.0234375
-0.05273438
-0.03808594
-0.0703125
-0.04101562
-0.0234375
-0.07324219
-0.12890625
-0.09375
-0.07910156
0.02050781
-0.046875
-0.0703125
-0.08789062
-0.09082031
-0.07617188
-0.06738281
-0.09375
0.03222656
0.02636719
-0.01464844
0.02929688
0.01757812
0.00878906
-0.01464844
-0.01757812
-0.02636719
-0.046875
-0.03808594
-0.04980469
-0.03808594
-0.03222656
-0.03222656
-0.046875
-0.04980469
-0.04394531
-0.04980469
-0.03222656
-0.06152344
-0.02636719
-0.00585937
-0.0234375
-0.03222656
-0.0234375
-0.04394531
-0.046875
-0.03515625
-0.05273438
-0.0234375
-0.02636719
-0.01171875
-0.03515625
-0.04101562
-0.02929688
-0.04980469
-0.28125
-0.19335937
-0.0234375
-0.02050781
-0.03808594
-0.02050781
-0.01757812
-0.02636719
-0.03515625
-0.046875
-0.046875
-0.04980469
-0.06152344
-0.04980469
-0.06738281
-0.06738281
-0.06152344
-0.07324219
-0.09960938
-0.09082031
-0.10253906
-0.09667969
-0.09082031
-0.10253906
-0.06738281
-0.05566406
-0.03808594
-0.01171875
-0.00878906
-0.00292969
-0.00585937
-0.01171875
-0.00878906
-0.01171875
-0.03222656
-0.02050781
-0.01464844
-0.01757812
-0.01757812
-0.01464844
-0.01171875
-0.03222656
-0.01171875
-0.03515625
-0.03515625
-0.00878906
0.01464844
0.00585937
0.0
-0.00878906
-0.01464844
-0.01757812
-0.02929688
-0.04980469
-0.0234375
0.01171875
-0.00585937
0.0
-0.01464844
-0.01464844
-0.01757812
-0.02050781
-0.00292969
-0.08203125
-0.24023437
-0.07324219
0.03222656
0.0
-0.01757812
-0.01171875
-0.01464844
-0.01464844
-0.02929688
-0.02929688
-0.02636719
-0.02929688
-0.03515625
-0.03515625
-0.05273438
-0.046875
-0.04394531
-0.06152344
-0.06445312
-0.08203125
-0.08496094
-0.07910156
-0.06152344
-0.05566406
-0.046875
-0.02636719
-0.00585937
-0.01171875
0.00292969
0.00292969
0.00585937
0.0
-0.01757812
-0.00878906
-0.0234375
-0.0234375
-0.02636719
-0.0234375
-0.0234375
-0.02636719
-0.02636719
-0.04394531
-0.08789062
-0.11132812
-0.14648438
-0.19335937
-0.28125
-0.375
-0.31640625
-0.13769531
-0.07617188
0.00878906
0.17285156
0.1875
0.16699219
0.16699219
0.1640625
0.14941406
0.140625
0.13769531
0.12890625
0.12597656
0.12597656
0.12890625
0.12597656
0.1171875
0.10839844
0.07910156
0.05273438
0.01757812
-0.0234375
-0.04980469
-0.08496094
-0.09375
-0.1171875
-0.11425781
-0.11425781
-0.11425781
-0.09960938
-0.09960938
-0.09375
-0.10839844
-0.09667969
-0.08789062
-0.09375
-0.08789062
-0.09375
-0.07324219
-0.07617188
-0.06738281
-0.06445312
-0.06738281
-0.06152344
-0.06738281
-0.046875
-0.05566406
-0.04394531
-0.04980469
-0.04980469
-0.04101562
-0.04980469
-0.05273438
-0.03808594
-0.05566406
-0.046875
-0.04101562
-0.04101562
-0.04394531
-0.046875
-0.04101562
-0.046875
-0.04101562
-0.03808594
-0.04101562
-0.03808594
-0.03515625
-0.02636719
-0.03808594
-0.04101562
-0.03515625
-0.03808594
-0.05859375
-0.04394531
-0.02929688
-0.02050781
-0.02929688
-0.0234375
-0.03515625
-0.03222656
-0.02636719
-0.06152344
-0.24902344
-0.10546875
0.01464844
0.00292969
-0.00292969
-0.00292969
0.00585937
-0.01171875
-0.01464844
-0.02050781
-0.01757812
-0.0234375
-0.02636719
-0.02636719
-0.02636719
-0.03222656
-0.04101562
-0.03808594
-0.046875
-0.05566406
-0.06738281
-0.06738281
-0.06152344
-0.04980469
-0.046875
-0.03808594
-0.02929688
-0.01464844
-0.00878906
-0.00585937
0.0
-0.00585937
-0.00585937
-0.00878906
-0.01171875
-0.01464844
-0.02050781
-0.02050781
-0.02050781
-0.01464844
-0.02050781
-0.01757812
-0.02050781
-0.01171875
-0.00585937
-0.01464844
-0.00878906
-0.00878906
-0.01757812
-0.02050781
-0.01757812
-0.02050781
-0.04394531
-0.02636719
-0.01757812
-0.0234375
-0.01464844
-0.02050781
-0.02929688
-0.03222656
-0.03808594
-0.02929688
-0.12304688
-0.26660156
-0.02050781
0.02636719
-0.00585937
-0.0234375
-0.02636719
-0.02929688
-0.04101562
-0.04394531
-0.04394531
-0.05273438
-0.05273438
-0.05859375
-0.07324219
-0.06445312
-0.0703125
-0.08203125
-0.07324219
-0.09960938
-0.10839844
-0.10839844
-0.10546875
-0.09375
-0.08789062
-0.05859375
-0.046875
-0.04394531
-0.02636719
-0.01757812
-0.0234375
-0.02050781
-0.01757812
-0.02929688
-0.046875
-0.03808594
-0.04101562
-0.046875
-0.04101562
-0.04394531
-0.04101562
-0.04394531
-0.04394531
-0.04394531
-0.04101562
-0.03515625
-0.05273438
-0.03515625
-0.03808594
-0.03808594
-0.04101562
-0.04101562
-0.05273438
-0.04101562
-0.04101562
-0.13183594
-0.08203125
-0.04394531
-0.12890625
-0.1171875
-0.13769531
0.07617188
0.10839844
0.15234375
-0.04394531
-0.06738281
-0.00878906
0.07617188
0.02050781
-0.05859375
-0.06152344
-0.03808594
-0.00878906
0.00878906
-0.13183594
0.01464844
0.03515625
-0.06445312
-0.234375
-0.07324219
-0.00585937
0.02636719
0.00292969
-0.0234375
-0.07324219
-0.11425781
-0.08496094
-0.12304688
-0.1875
0.00292969
0.0
0.09082031
0.03222656
-0.02929688
0.06445312
0.02636719
0.01171875
-0.03222656
-0.01757812
-0.09375
-0.0703125
-0.00878906
-0.10839844
-0.0234375
-0.1171875
0.10546875
0.15820312
0.00292969
0.0234375
0.02636719
-0.07617188
0.01757812
-0.00585937
-0.09082031
-0.01171875
-0.0234375
-0.06152344
-0.02929688
0.0703125
-0.09667969
0.03222656
-0.0234375
-0.00292969
-0.03808594
-0.02050781
-0.23144531
-0.17285156
0.11132812
0.03808594
-0.00585937
-0.04394531
-0.06738281
-0.04101562
-0.05859375
-0.06738281
-0.02929688
-0.03515625
-0.08203125
-0.08496094
-0.06445312
-0.15820312
-0.05859375
-0.03515625
-0.046875
-0.0703125
-0.07617188
-0.07324219
-0.08789062
-0.14355469
-0.01171875
-0.00585937
-0.02636719
0.01171875
0.02050781
-0.03808594
0.03222656
0.03222656
0.00585937
-0.03222656
-0.02929688
-0.07324219
-0.02636719
-0.07324219
0.0
0.01464844
-0.04394531
-0.02050781
-0.02929688
-0.03515625
-0.05859375
-0.04980469
-0.05859375
-0.17578125
0.06738281
0.04101562
0.0
-0.03808594
-0.14355469
-0.12304688
0.02636719
0.07910156
0.03808594
0.0
-0.03515625
-0.07617188
-0.02929688
-0.07910156
-0.27539062
-0.10253906
0.00878906
-0.02636719
-0.01464844
0.0
0.00585937
-0.03222656
-0.05859375
-0.08496094
-0.07324219
0.03515625
-0.046875
-0.02929688
-0.01464844
-0.06152344
-0.05859375
-0.07324219
-0.10546875
-0.10546875
-0.046875
-0.08203125
-0.07910156
-0.03808594
-0.04980469
-0.046875
0.0
0.0
-0.01171875
0.00585937
-0.00585937
-0.0234375
0.00878906
-0.00878906
-0.02050781
-0.02636719
-0.02636719
-0.02636719
-0.03515625
-0.00292969
-0.05859375
-0.00292969
0.06738281
0.01757812
-0.01171875
-0.00585937
-0.02050781
-0.046875
-0.04101562
-0.01171875
-0.00878906
-0.10253906
-0.01464844
-0.04101562
0.00585937
0.04980469
0.01464844
-0.00878906
-0.03808594
-0.09375
-0.03515625
-0.05273438
-0.25195312
-0.12890625
0.0703125
0.01757812
-0.02636719
-0.00585937
-0.01464844
-0.02050781
-0.02050781
-0.03222656
-0.06152344
-0.0234375
-0.06738281
-0.05566406
-0.00292969
-0.046875
-0.046875
-0.07324219
-0.07324219
-0.10839844
-0.05566406
-0.07324219
-0.09082031
-0.06445312
-0.05273438
-0.046875
-0.03515625
-0.05859375
-0.03808594
0.046875
0.0234375
-0.00292969
-0.0234375
-0.05859375
-0.02929688
-0.06445312
0.046875
0.00878906
-0.0234375
-0.04101562
-0.05273438
-0.01464844
-0.03222656
-0.01171875
-0.01757812
-0.04980469
-0.06152344
-0.00292969
-0.0234375
-0.06738281
-0.04980469
-0.02050781
-0.06152344
-0.05859375
-0.04394531
-0.02050781
-0.0234375
-0.03808594
-0.03515625
-0.03808594
-0.04101562
-0.06738281
-0.04980469
-0.26074219
-0.13476562
0.02636719
0.01171875
-0.0234375
0.0
-0.02929688
-0.04394531
-0.02050781
-0.03222656
-0.05859375
-0.02929688
-0.05273438
-0.03222656
-0.05566406
-0.04394531
-0.06738281
-0.04980469
-0.0703125
-0.0703125
-0.08496094
-0.07910156
-0.06738281
-0.0703125
-0.04101562
-0.02050781
-0.02050781
0.00292969
0.0
-0.00292969
-0.0234375
0.01464844
-0.01171875
-0.05859375
0.01757812
-0.00878906
-0.01171875
-0.06738281
-0.03515625
-0.10253906
-0.04101562
0.03515625
0.00878906
-0.02636719
-0.01171875
-0.07324219
-0.02050781
0.01171875
-0.01757812
-0.02636719
-0.03808594
-0.06152344
-0.05566406
-0.046875
-0.02929688
-0.02929688
-0.02929688
-0.02636719
-0.046875
-0.04394531
-0.046875
-0.01171875
-0.12890625
-0.15527344
0.04394531
0.04394531
-0.0234375
-0.02636719
-0.02929688
-0.04394531
-0.04101562
-0.04980469
-0.0234375
-0.046875
-0.05859375
-0.05273438
-0.05273438
-0.08496094
-0.06738281
-0.05566406
-0.07324219
-0.08203125
-0.09082031
-0.08203125
-0.07910156
-0.09375
-0.03222656
-0.01464844
-0.01757812
-0.02050781
-0.00878906
-0.00878906
0.03515625
0.03222656
0.0
0.01757812
-0.02050781
-0.01171875
-0.03808594
-0.03808594
-0.03808594
-0.04394531
-0.02929688
-0.02636719
-0.04394531
0.01171875
-0.00292969
-0.01171875
-0.05859375
-0.01171875
-0.00585937
-0.02929688
-0.03515625
-0.02929688
-0.00878906
-0.12597656
-0.02636719
0.02050781
-0.00585937
-0.04394531
0.00292969
-0.06152344
-0.01464844
-0.04101562
0.0
-0.13476562
-0.24023437
-0.02929688
-0.00292969
-0.01757812
-0.01757812
-0.01171875
-0.08789062
-0.03808594
0.00878906
0.0
-0.02636719
-0.046875
-0.046875
-0.05273438
-0.046875
-0.07617188
-0.05859375
-0.07617188
-0.09960938
-0.046875
-0.06445312
-0.09375
-0.046875
-0.05859375
-0.04101562
-0.00585937
-0.00292969
0.00292969
-0.00878906
-0.01757812
0.02636719
0.00292969
-0.02050781
-0.04394531
-0.00878906
-0.03808594
-0.02050781
-0.02636719
-0.03808594
-0.08789062
-0.00878906
0.00878906
-0.01464844
-0.01757812
-0.03808594
-0.03808594
-0.03808594
-0.04980469
-0.046875
0.0
-0.04394531
-0.0234375
-0.03808594
-0.06152344
-0.05566406
-0.04394531
-0.00585937
-0.02636719
-0.03222656
-0.02050781
-0.04980469
-0.05273438
0.00585937
-0.12304688
-0.29296875
-0.07324219
0.02050781
0.00878906
0.00878906
-0.00292969
-0.01464844
-0.00878906
-0.03808594
-0.03515625
-0.02636719
0.0
-0.02050781
-0.08496094
-0.02929688
-0.03222656
-0.04101562
-0.05566406
-0.08203125
-0.05859375
-0.07910156
-0.08496094
-0.06152344
-0.02050781
-0.04394531
-0.01171875
-0.01464844
0.01757812
-0.00292969
-0.00292969
0.04394531
0.01171875
0.00292969
-0.01171875
-0.02636719
-0.03515625
-0.0234375
-0.02050781
-0.04101562
-0.01464844
-0.01171875
-0.02050781
-0.03808594
-0.0234375
-0.03808594
-0.046875
-0.0703125
0.05273438
0.03222656
-0.00585937
-0.02636719
-0.03515625
-0.04101562
-0.01757812
-0.04394531
-0.03515625
-0.0234375
-0.18457031
-0.08203125
0.10839844
0.01464844
-0.00878906
-0.00292969
-0.0234375
-0.06152344
-0.24902344
-0.2109375
0.00878906
-0.00878906
-0.02636719
-0.04394531
-0.07617188
0.00878906
-0.01171875
-0.03808594
-0.046875
-0.04980469
-0.06738281
-0.05273438
-0.07617188
-0.08496094
0.00878906
-0.046875
-0.05859375
-0.09667969
-0.07617188
-0.10253906
-0.10546875
-0.06738281
0.00292969
-0.01171875
-0.01757812
-0.02636719
0.00585937
-0.01464844
-0.00585937
-0.00878906
-0.03808594
0.00292969
-0.01757812
-0.03515625
-0.02929688
-0.03808594
-0.03515625
-0.02929688
-0.06152344
-0.00585937
-0.0234375
-0.08203125
-0.01171875
-0.02050781
-0.09375
-0.01757812
0.05566406
-0.00292969
-0.02636719
-0.04101562
-0.00585937
-0.05273438
-0.04394531
-0.046875
-0.03515625
-0.02929688
-0.05566406
-0.05566406
-0.01171875
-0.02050781
-0.04101562
-0.046875
-0.01757812
-0.140625
-0.22851562
0.00585937
0.03808594
-0.03515625
0.01757812
-0.08203125
-0.02050781
0.00878906
-0.01464844
-0.03808594
-0.05566406
-0.0703125
-0.05273438
-0.09375
-0.04980469
-0.01464844
-0.04101562
-0.08203125
-0.06152344
-0.10253906
-0.12597656
-0.07324219
-0.08496094
-0.04394531
-0.01464844
-0.05273438
-0.02050781
0.04394531
0.05273438
0.01464844
0.03515625
0.00878906
-0.00292969
-0.04394531
-0.05273438
-0.00878906
-0.03515625
-0.03515625
-0.05566406
-0.00878906
-0.02929688
-0.04394531
0.01171875
-0.02050781
-0.01171875
-0.03515625
-0.01171875
-0.0703125
0.00585937
-0.06152344
-0.09082031
-0.01464844
0.07324219
0.0
-0.046875
-0.04101562
0.01757812
-0.05566406
-0.00585937
-0.046875
-0.02929688
-0.04394531
-0.04101562
-0.03515625
-0.07910156
-0.28417969
-0.15234375
-0.05859375
-0.00292969
0.01757812
-0.00292969
0.05566406
-0.00585937
-0.05859375
0.02050781
-0.04394531
-0.0703125
-0.05273438
-0.02050781
-0.06445312
-0.06445312
-0.03808594
-0.06152344
-0.07910156
-0.09375
-0.09667969
-0.09375
-0.08789062
-0.0703125
-0.06152344
-0.08789062
0.02636719
0.00878906
-0.02929688
0.01171875
0.00585937
0.04394531
-0.00585937
0.0
-0.00585937
-0.09082031
-0.03808594
0.01171875
0.0
-0.00292969
-0.00585937
-0.01464844
0.00292969
-0.01464844
-0.01171875
-0.02929688
-0.01171875
-0.0234375
-0.02050781
-0.02050781
-0.01464844
-0.05566406
-0.0703125
0.03808594
-0.00292969
0.0
-0.03515625
-0.02050781
-0.02929688
-0.0234375
-0.01464844
-0.07617188
-0.02929688
0.02050781
-0.0234375
-0.0234375
-0.22851562
-0.20800781
0.01171875
0.00292969
-0.00585937
-0.02636719
-0.03515625
-0.04980469
0.00292969
-0.00292969
-0.01757812
-0.0234375
-0.04394531
-0.07324219
-0.04980469
-0.13769531
-0.02050781
-0.02929688
-0.06738281
-0.1171875
-0.08203125
-0.09375
-0.07324219
-0.08496094
-0.08496094
-0.01171875
-0.0234375
-0.00878906
-0.02636719
-0.04980469
-0.01757812
0.03222656
-0.03515625
-0.01464844
-0.02929688
-0.05566406
-0.05273438
0.00292969
-0.02050781
-0.03515625
-0.05566406
-0.04980469
-0.046875
-0.04980469
-0.01464844
-0.046875
-0.00878906
-0.02636719
-0.02636719
-0.03222656
-0.04394531
-0.05273438
-0.04394531
-0.04394531
-0.02636719
-0.046875
-0.04394531
-0.046875
-0.03808594
-0.03222656
-0.01171875
-0.03808594
-0.03515625
-0.03222656
-0.02929688
-0.04394531
0.00292969
-0.08789062
-0.26660156
-0.06738281
0.02636719
-0.00292969
-0.03515625
-0.03515625
-0.04980469
-0.02636719
-0.01757812
-0.03515625
-0.04101562
-0.04394531
-0.05566406
-0.05273438
-0.04394531
-0.05566406
-0.06738281
-0.05859375
-0.09667969
-0.08496094
-0.06738281
-0.07324219
-0.06152344
-0.07617188
-0.03808594
-0.0234375
-0.01171875
0.01171875
0.01171875
0.00878906
-0.01464844
0.0
-0.01464844
0.00292969
-0.02929688
0.00292969
-0.02050781
-0.01464844
-0.04101562
-0.06738281
-0.03808594
-0.05273438
-0.06738281
0.04980469
0.04101562
0.00585937
0.00878906
-0.03515625
-0.02636719
-0.07324219
-0.11132812
-0.19042969
0.19335937
0.09667969
0.00585937
-0.01464844
-0.02050781
-0.01171875
-0.046875
-0.04101562
-0.04394531
-0.05273438
-0.03808594
0.01171875
-0.10546875
-0.25195312
0.01464844
0.03808594
-0.07910156
0.04980469
0.01757812
-0.06738281
-0.02050781
-0.00585937
-0.06445312
-0.09375
-0.02929688
-0.046875
-0.12304688
-0.02636719
-0.046875
-0.06152344
-0.09667969
-0.09375
-0.11132812
-0.09667969
-0.10253906
-0.07617188
-0.08496094
-0.02929688
-0.01757812
0.00292969
-0.0234375
0.01171875
-0.00585937
0.02636719
0.03222656
0.01464844
-0.01757812
-0.02050781
-0.046875
-0.01171875
-0.02929688
-0.05273438
-0.07910156
0.00292969
-0.01171875
0.0
-0.046875
0.02050781
-0.01171875
-0.01171875
-0.02929688
-0.0234375
-0.02050781
-0.02050781
-0.02929688
-0.03222656
-0.0703125
-0.00292969
0.00292969
-0.03222656
-0.04101562
-0.046875
-0.046875
-0.13769531
-0.02929688
0.02636719
0.03222656
-0.09375
0.01464844
0.05273438
-0.17871094
-0.24023437
0.02050781
0.05273438
0.02050781
-0.01464844
-0.08789062
0.03808594
-0.08203125
-0.04101562
0.00292969
-0.05566406
0.02050781
-0.00878906
-0.06738281
-0.046875
-0.09082031
-0.02929688
-0.11425781
-0.09082031
-0.0234375
-0.06152344
-0.07324219
-0.06445312
-0.07617188
-0.06738281
-0.01171875
0.00878906
-0.03808594
-0.01464844
0.02636719
-0.00878906
-0.02636719
-0.03808594
-0.04980469
0.01171875
0.0234375
0.00585937
-0.0234375
-0.02929688
-0.03222656
-0.0703125
-0.0234375
-0.02050781
-0.06445312
-0.01171875
-0.01757812
-0.01464844
-0.03808594
-0.02636719
0.01171875
-0.02929688
-0.03222656
-0.05859375
-0.0234375
0.01171875
-0.00878906
-0.03808594
-0.01464844
-0.03222656
-0.08203125
-0.05273438
-0.01464844
-0.05273438
-0.02929688
-0.02929688
0.05273438
-0.01757812
0.00292969
-0.05566406
-0.28417969
-0.10253906
0.03222656
0.01171875
-0.00292969
-0.04394531
-0.00878906
0.02929688
-0.01464844
-0.04101562
-0.04101562
-0.10546875
-0.04101562
-0.04394531
-0.05273438
-0.06445312
-0.01757812
-0.02636719
-0.07324219
-0.11132812
-0.09375
-0.04394531
-0.06445312
-0.07910156
-0.05566406
-0.04980469
-0.046875
-0.01464844
-0.01464844
-0.02636719
0.00292969
-0.00585937
-0.01757812
-0.04394531
0.03222656
0.01171875
-0.00585937
-0.06152344
-0.00878906
0.0
-0.08203125
-0.03222656
-0.01757812
0.00878906
-0.02929688
-0.00292969
-0.02636719
-0.03515625
-0.00585937
-0.05859375
-0.04101562
0.00878906
-0.01464844
-0.04394531
-0.03515625
-0.0234375
-0.046875
-0.02636719
-0.03808594
-0.046875
-0.09960938
-0.03808594
-0.02929688
-0.04394531
-0.03808594
-0.046875
-0.0234375
-0.0234375
-0.04394531
-0.01171875
-0.15527344
-0.20800781
0.02050781
0.02050781
-0.01171875
-0.03808594
-0.0234375
-0.02636719
-0.03515625
-0.05273438
-0.03222656
-0.0234375
-0.04101562
-0.03808594
-0.046875
-0.05859375
-0.04980469
-0.11132812
-0.07910156
-0.05859375
-0.10839844
-0.09375
-0.09082031
-0.07617188
-0.06152344
-0.02636719
0.0
-0.00878906
0.0
0.0234375
-0.00292969
-0.01171875
0.04394531
0.03808594
-0.01464844
-0.02050781
-0.02929688
-0.08203125
-0.02929688
-0.08496094
0.02929688
0.02929688
-0.03808594
0.0
0.02050781
-0.11425781
0.06152344
-0.0703125
-0.03515625
0.07324219
0.01171875
0.01464844
-0.02636719
-0.06738281
-0.09960938
-0.00585937
0.02050781
-0.00878906
-0.07324219
-0.05566406
-0.046875
-0.13476562
-0.03222656
-0.02636719
-0.04394531
-0.10839844
-0.01757812
0.046875
-0.18164062
-0.15527344
0.03808594
0.04394531
-0.06738281
-0.05859375
-0.07617188
-0.00585937
-0.05859375
-0.01464844
0.02050781
-0.01757812
-0.10839844
-0.0703125
-0.10253906
-0.15820312
0.08789062
0.02050781
-0.07617188
-0.08496094
-0.11425781
-0.14648438
-0.04394531
-0.12890625
-0.05566406
0.04394531
0.04101562
0.02636719
0.00292969
-0.03222656
-0.07910156
0.05566406
-0.01171875
0.00878906
0.01464844
0.03222656
0.00585937
-0.04101562
-0.03808594
-0.02636719
-0.01171875
-0.04101562
-0.04101562
-0.02636719
-0.03222656
-0.02050781
-0.02929688
-0.0234375
-0.02636719
-0.03515625
-0.07324219
-0.09082031
-0.08496094
0.10839844
-0.02050781
0.02929688
-0.05859375
0.04394531
-0.07910156
-0.10253906
0.00878906
0.0
0.00292969
-0.01171875
-0.03222656
-0.01464844
-0.04980469
-0.06738281
-0.07324219
-0.22558594
-0.1171875
-0.01757812
0.01757812
-0.03515625
-0.01171875
-0.03808594
-0.046875
-0.01757812
-0.04101562
-0.046875
-0.11425781
-0.01464844
-0.06152344
-0.05566406
-0.04394531
-0.046875
-0.00292969
-0.10546875
-0.07324219
-0.05566406
-0.08496094
-0.08203125
-0.04394531
-0.05566406
-0.05859375
-0.01171875
0.01171875
0.01171875
-0.02636719
0.04394531
0.0
-0.03515625
0.02050781
0.01171875
-0.0234375
-0.02636719
-0.03808594
-0.02050781
-0.046875
-0.02929688
-0.05273438
-0.02929688
0.02636719
-0.01757812
-0.03808594
-0.00292969
-0.12011719
-0.02636719
-0.02050781
-0.19042969
0.13476562
-0.00878906
0.07324219
0.00878906
-0.01171875
-0.04980469
-0.13769531
-0.06445312
-0.05566406
0.01171875
0.02050781
-0.03808594
-0.046875
-0.04980469
-0.1171875
-0.00585937
-0.16699219
-0.25488281
-0.01757812
0.0
-0.046875
-0.09082031
-0.06445312
0.07617188
-0.00292969
-0.04101562
0.03222656
-0.05566406
-0.02050781
-0.10546875
-0.1875
0.046875
0.02636719
-0.03222656
-0.06152344
-0.0703125
-0.18457031
-0.06738281
-0.05273438
-0.07617188
-0.08203125
-0.04394531
-0.05273438
-0.04394531
-0.02929688
0.00878906
0.0703125
0.03515625
-0.01464844
0.00292969
-0.06152344
-0.02050781
0.00878906
-0.16113281
-0.02050781
0.06445312
-0.01464844
0.02636719
-0.04101562
0.00585937
-0.03222656
-0.05273438
-0.03808594
-0.0234375
-0.02636719
-0.02050781
-0.02929688
-0.07617188
-0.00585937
-0.0234375
-0.046875
0.0234375
-0.01757812
-0.01171875
-0.04101562
0.0
-0.09375
-0.02929688
-0.06152344
0.01757812
-0.19921875
-0.0234375
0.06738281
0.0234375
-0.01464844
-0.04101562
-0.04980469
-0.03808594
-0.04980469
-0.07910156
-0.07324219
-0.05273438
-0.11425781
0.03515625
-0.01171875
-0.06738281
-0.09375
-0.08496094
-0.07910156
-0.0703125
-0.09375
-0.07910156
-0.08203125
-0.09960938
-0.01464844
0.00878906
-0.00585937
-0.07617188
0.046875
0.05273438
0.0234375
-0.03808594
0.04980469
0.0234375
-0.01757812
-0.046875
0.01464844
-0.00292969
-0.04394531
-0.0703125
0.01757812
-0.00585937
-0.02636719
-0.02636719
-0.02929688
-0.01757812
-0.08496094
0.00878906
0.00878906
-0.02050781
-0.02929688
-0.04980469
-0.0703125
-0.04394531
-0.06152344
-0.03808594
-0.00878906
-0.02636719
-0.03808594
-0.02050781
-0.04101562
-0.09960938
-0.06445312
-0.2578125
-0.07910156
0.12304688
-0.02929688
0.02929688
-0.00585937
0.02050781
0.0
-0.04101562
-0.01464844
-0.05859375
-0.10253906
-0.02050781
-0.02929688
-0.05566406
-0.07324219
-0.08496094
-0.08496094
-0.09667969
-0.10839844
-0.12890625
-0.12011719
-0.02636719
-0.10253906
0.0
-0.01464844
-0.02929688
-0.00878906
0.00878906
-0.01464844
0.03222656
0.03222656
-0.00585937
0.00292969
-0.04394531
-0.07324219
-0.03808594
0.01464844
0.02636719
-0.00878906
-0.01464844
-0.02636719
-0.01464844
-0.046875
-0.0234375
0.00292969
-0.01171875
-0.02929688
-0.02929688
-0.046875
-0.00878906
-0.05273438
-0.08496094
-0.02929688
0.02050781
0.01464844
0.00585937
-0.01757812
-0.01757812
-0.01757812
-0.05273438
-0.046875
-0.12304688
-0.25488281
-0.06445312
0.01757812
0.0
-0.02050781
-0.02929688
-0.01171875
-0.0234375
-0.04980469
-0.046875
-0.04980469
-0.08203125
-0.0234375
-0.0234375
-0.03808594
-0.05859375
-0.06738281
-0.11132812
-0.19042969
-0.03222656
-0.02929688
-0.06445312
-0.0703125
-0.05859375
-0.046875
-0.07324219
-0.28710938
0.04101562
0.17578125
0.09667969
0.03515625
0.0
-0.03222656
-0.05859375
-0.02636719
-0.03808594
-0.05859375
-0.02929688
-0.02929688
-0.0703125
-0.1640625
-0.03515625
-0.046875
-0.05859375
0.03222656
0.00292969
-0.03515625
-0.03808594
-0.04980469
-0.04980469
-0.05566406
-0.12890625
-0.00585937
-0.05273438
-0.02636719
-0.01757812
-0.046875
-0.01757812
-0.03515625
-0.05273438
-0.09667969
-0.03808594
-0.05273438
-0.26367188
-0.16992188
0.03515625
0.00878906
-0.03808594
-0.03515625
-0.00878906
-0.09375
-0.00878906
-0.00585937
-0.03515625
-0.046875
-0.05566406
-0.05859375
-0.07324219
-0.07910156
-0.09375
-0.07324219
-0.10253906
-0.14355469
-0.06152344
-0.03515625
-0.03515625
-0.04394531
-0.04394531
-0.02636719
-0.01171875
0.00878906
0.00292969
0.0
-0.00292969
-0.00292969
0.03222656
-0.03808594
0.00585937
-0.01464844
-0.00585937
-0.05859375
-0.03515625
0.00292969
-0.01464844
-0.01757812
-0.03515625
-0.02050781
0.01171875
-0.02636719
-0.2109375
0.01171875
0.10546875
0.03515625
-0.04101562
-0.0703125
0.00878906
-0.0234375
-0.04394531
-0.04394531
-0.04980469
-0.09082031
-0.03515625
-0.06445312
-0.11425781
-0.15234375
-0.05566406
-0.0234375
-0.08203125
-0.10839844
-0.06445312
-0.10839844
-0.14355469
0.046875
0.03515625
-0.01464844
0.05566406
0.05859375
-0.02050781
0.06152344
0.01464844
-0.00292969
-0.02050781
0.02050781
0.00292969
-0.02050781
-0.1171875
0.03515625
-0.0234375
-0.15234375
0.06445312
0.09375
0.02636719
0.00292969
-0.00878906
-0.01171875
-0.03515625
-0.07910156
0.01757812
-0.06152344
-0.03515625
-0.046875
-0.04980469
-0.02929688
0.03515625
0.01171875
-0.03515625
-0.02636719
-0.01171875
-0.03808594
-0.046875
-0.04394531
-0.02929688
-0.18164062
-0.06445312
-0.12011719
0.08203125
0.06152344
0.00878906
-0.06445312
-0.13769531
-0.15820312
-0.14648438
0.05273438
0.14355469
0.06445312
-0.00878906
-0.04101562
-0.1640625
-0.31347656
-0.02929688
0.04101562
-0.09082031
0.07617188
0.02050781
-0.12597656
0.09960938
0.00878906
-0.09667969
-0.046875
-0.05273438
-0.03515625
0.02929688
0.03808594
-0.06738281
-0.03808594
-0.09375
-0.08203125
-0.140625
-0.04980469
-0.12304688
-0.04394531
-0.02050781
-0.02636719
-0.04101562
-0.02050781
-0.06738281
0.04980469
0.05566406
-0.12890625
0.05273438
0.02929688
-0.05859375
0.02929688
-0.03515625
-0.046875
-0.03515625
-0.0234375
0.03808594
-0.00878906
-0.01171875
-0.04980469
-0.06152344
-0.03808594
-0.01464844
-0.02929688
-0.00878906
-0.03222656
0.0
-0.01171875
-0.04394531
-0.02636719
-0.01464844
-0.01757812
-0.03808594
-0.04394531
-0.04980469
-0.07910156
-0.02050781
-0.03222656
-0.04980469
0.00585937
0.00585937
-0.0234375
-0.06445312
-0.04980469
-0.25488281
-0.23144531
0.02050781
0.07910156
-0.02050781
0.0
0.00292969
-0.01171875
-0.03808594
-0.046875
-0.05566406
-0.06445312
-0.0703125
-0.0234375
-0.02050781
-0.07324219
-0.05566406
-0.08496094
-0.15234375
-0.12304688
-0.00878906
-0.04980469
-0.06152344
-0.06445312
-0.06738281
-0.02929688
-0.09375
-0.02929688
-0.01171875
0.05566406
0.03808594
0.04101562
0.00585937
-0.0234375
-0.01464844
-0.06738281
-0.00878906
-0.00585937
-0.07617188
-0.02929688
-0.02050781
-0.04394531
-0.04101562
-0.08203125
-0.046875
0.03808594
-0.02636719
-0.0234375
-0.04394531
-0.03808594
-0.03515625
-0.07324219
-0.04101562
-0.00878906
-0.02050781
-0.04394531
-0.046875
-0.03515625
-0.05859375
-0.06738281
0.0
-0.046875
-0.02929688
-0.03222656
-0.02050781
-0.046875
-0.03808594
0.0
-0.04101562
-0.28125
-0.03222656
0.05566406
-0.00585937
-0.01464844
-0.02929688
-0.03515625
-0.01171875
-0.03515625
-0.03808594
-0.03515625
-0.05566406
-0.04394531
-0.06152344
-0.04394531
-0.046875
-0.06738281
-0.10546875
-0.08203125
-0.08496094
-0.08203125
-0.05859375
-0.08496094
-0.08789062
-0.04101562
-0.01464844
-0.04394531
0.00292969
0.01171875
-0.05273438
0.09375
0.00878906
0.00878906
0.00878906
0.00292969
-0.03222656
-0.0234375
-0.03515625
-0.02929688
-0.03515625
-0.01464844
0.00292969
-0.01757812
-0.01171875
-0.01171875
-0.04101562
-0.00878906
-0.00585937
-0.04394531
-0.00878906
0.00878906
-0.00585937
-0.00585937
-0.04101562
-0.03808594
-0.0234375
-0.03808594
-0.05273438
0.00292969
-0.02050781
-0.02929688
-0.03808594
0.02050781
-0.11425781
-0.19921875
-0.02636719
0.04101562
-0.02636719
-0.03222656
-0.01757812
-0.01171875
-0.09375
-0.046875
-0.046875
-0.01464844
-0.02050781
-0.07324219
-0.04394531
-0.0703125
-0.06445312
-0.0703125
-0.14648438
-0.13183594
-0.046875
-0.0703125
-0.11132812
-0.08203125
-0.13769531
0.00292969
0.0
-0.02050781
0.05859375
0.046875
0.01464844
0.0
-0.0234375
0.01464844
-0.01757812
-0.15820312
-0.07324219
-0.10253906
0.02929688
0.07910156
0.01171875
0.00878906
-0.02050781
-0.03808594
-0.03808594
-0.046875
-0.03515625
-0.04980469
-0.21972656
-0.13476562
-0.13183594
0.06152344
0.05859375
0.09082031
0.00585937
-0.06738281
-0.046875
-0.24316406
-0.02636719
-0.13769531
0.08789062
0.06738281
-0.01464844
-0.06152344
-0.07324219
-0.13183594
-0.07617188
-0.09960938
-0.18164062
-0.14648438
-0.05859375
-0.03515625
0.00292969
0.05566406
-0.10839844
0.04394531
0.09960938
0.02636719
0.00878906
-0.04980469
0.02636719
-0.046875
-0.03808594
0.00878906
-0.03808594
0.02050781
0.0
-0.01757812
-0.03222656
-0.0234375
-0.03808594
-0.07617188
-0.10546875
-0.05566406
-0.02636719
0.01757812
-0.07910156
-0.02050781
0.01464844
0.00292969
-0.0234375
-0.04394531
-0.046875
-0.0703125
-0.06738281
-0.01757812
-0.03808594
-0.01757812
-0.04980469
-0.046875
-0.046875
-0.07617188
-0.07324219
-0.00878906
-0.03222656
-0.046875
-0.06152344
-0.05859375
0.00292969
-0.00878906
-0.06445312
-0.06445312
-0.0234375
-0.14355469
-0.02050781
0.06152344
0.00292969
-0.03222656
-0.01464844
-0.05859375
-0.21679688
-0.36035156
0.01171875
0.05273438
-0.04980469
-0.01464844
-0.00292969
-0.01464844
0.00292969
-0.00878906
-0.0234375
-0.04980469
-0.05566406
-0.05859375
-0.07617188
-0.0234375
-0.04980469
-0.08496094
-0.07617188
-0.08496094
-0.09082031
-0.09667969
-0.08789062
-0.09082031
-0.0703125
-0.08496094
-0.01464844
-0.03222656
-0.00292969
-0.03808594
0.01757812
-0.01464844
-0.00292969
0.02050781
-0.10546875
0.0
0.04101562
-0.0234375
-0.01757812
-0.04101562
-0.0234375
-0.05566406
-0.046875
-0.03222656
-0.046875
-0.03808594
-0.08496094
-0.01757812
-0.04101562
-0.04980469
-0.01757812
-0.05273438
-0.00585937
-0.03808594
-0.04394531
-0.03808594
-0.05859375
-0.04394531
-0.04980469
-0.10546875
-0.02050781
-0.05859375
0.01757812
-0.0234375
-0.08203125
0.00585937
-0.02929688
-0.04980469
-0.0234375
-0.12890625
-0.20800781
-0.02636719
0.03808594
0.00292969
-0.06445312
-0.02636719
-0.05859375
-0.01757812
-0.00292969
-0.04394531
-0.04980469
-0.05859375
-0.06152344
-0.06445312
-0.07617188
-0.06152344
-0.05566406
-0.10839844
-0.09960938
-0.05859375
-0.08789062
-0.13183594
-0.09960938
-0.10253906
-0.08496094
0.0234375
0.06445312
0.02050781
0.07324219
0.07617188
-0.07324219
0.04101562
0.09667969
0.0234375
-0.01171875
-0.08496094
-0.00878906
0.02050781
-0.03808594
-0.02636719
-0.05273438
-0.03808594
-0.09082031
0.01171875
0.00292969
-0.0234375
-0.05859375
-0.01757812
-0.01171875
-0.06738281
-0.08789062
-0.00878906
0.0
-0.0234375
-0.01464844
-0.02636719
-0.04980469
-0.0234375
0.02929688
0.0234375
-0.05859375
-0.00292969
-0.046875
-0.06738281
-0.08203125
-0.21386719
-0.04394531
-0.00878906
-0.08789062
-0.02050781
0.00292969
-0.00878906
0.07617188
0.00878906
-0.10546875
-0.0234375
-0.01757812
-0.12304688
-0.04394531
-0.07324219
-0.06738281
-0.03808594
-0.1171875
-0.08203125
-0.09375
-0.14355469
-0.06445312
-0.10546875
-0.09082031
-0.01757812
0.02929688
0.0234375
0.01464844
0.00585937
-0.00585937
-0.046875
-0.046875
0.05273438
-0.01757812
0.00585937
0.00292969
-0.02929688
-0.08496094
-0.11425781
0.03515625
0.00585937
-0.02636719
0.03515625
0.0
-0.01464844
-0.0703125
-0.03515625
-0.03515625
-0.03808594
-0.01171875
-0.01464844
-0.04101562
-0.03222656
0.00878906
-0.01464844
-0.00292969
-0.04980469
-0.06738281
-0.03808594
-0.0703125
0.0
0.02636719
-0.01171875
-0.04980469
-0.00585937
-0.01464844
-0.04980469
-0.27539062
-0.24902344
0.03808594
0.07910156
0.01757812
-0.05566406
0.02050781
-0.03515625
0.03808594
-0.01464844
-0.02636719
-0.03808594
-0.04980469
-0.05273438
-0.07324219
-0.00585937
-0.04394531
-0.10839844
-0.0234375
-0.13183594
-0.16992188
-0.01464844
-0.01171875
-0.02929688
-0.046875
-0.04101562
-0.0234375
-0.03808594
-0.05273438
-0.07324219
0.04980469
0.05273438
0.05566406
0.03222656
0.02050781
-0.04394531
-0.0234375
-0.07324219
-0.01757812
0.00878906
-0.04980469
-0.01757812
-0.03222656
-0.04101562
-0.03808594
-0.04980469
-0.04394531
-0.04394531
-0.02050781
-0.04394531
-0.03515625
-0.03808594
-0.03808594
-0.05273438
-0.05566406
-0.01757812
-0.03222656
-0.04980469
-0.07324219
-0.15234375
-0.09375
-0.00878906
-0.0234375
0.01171875
-0.02929688
0.046875
0.01757812
0.00292969
-0.10253906
-0.29296875
-0.09082031
0.01171875
-0.03222656
-0.06152344
0.0
-0.01171875
-0.02929688
-0.05273438
-0.04980469
-0.03808594
-0.07324219
-0.04394531
-0.046875
-0.0703125
-0.05566406
-0.06152344
-0.06445312
-0.11425781
-0.09375
-0.10546875
-0.09082031
-0.09082031
-0.05566406
-0.02929688
-0.02636719
-0.04980469
0.03515625
0.0
0.05273438
0.05273438
0.02929688
0.00585937
0.02050781
-0.0234375
-0.02929688
-0.02050781
0.00585937
-0.03808594
-0.02050781
-0.0234375
-0.0234375
-0.0234375
-0.01464844
-0.00585937
-0.05859375
0.00292969
-0.01464844
-0.02636719
-0.01757812
-0.01757812
0.0
-0.0703125
-0.046875
-0.00585937
-0.03515625
-0.1171875
0.01464844
-0.00585937
-0.05273438
-0.06445312
-0.09960938
-0.0703125
0.03808594
0.06738281
-0.00878906
-0.01757812
-0.00292969
-0.03808594
-0.04101562
-0.1171875
-0.26953125
-0.11132812
0.01464844
0.0234375
-0.01757812
-0.04394531
-0.05273438
-0.05273438
-0.046875
-0.07324219
-0.046875
-0.11132812
-0.05859375
-0.02050781
-0.03515625
-0.06152344
-0.11425781
-0.1171875
-0.04394531
-0.09960938
-0.13476562
-0.06152344
-0.09375
-0.03808594
-0.00585937
0.01171875
0.0
-0.01757812
0.01757812
-0.00585937
0.01464844
0.01464844
0.06152344
0.02050781
0.00585937
-0.0234375
-0.046875
-0.02636719
-0.03808594
0.00878906
-0.01757812
-0.05859375
0.00878906
-0.00878906
-0.02636719
-0.02929688
-0.046875
-0.00585937
0.00878906
-0.01171875
-0.0234375
-0.03808594
-0.04101562
-0.0234375
-0.03515625
-0.05566406
-0.0234375
-0.06445312
-0.0234375
-0.04101562
-0.02929688
-0.03222656
-0.03515625
-0.03808594
-0.02929688
-0.05859375
-0.01171875
-0.11132812
-0.21679688
-0.07617188
0.07617188
0.02636719
-0.0234375
-0.00585937
-0.02929688
-0.03808594
-0.03808594
-0.04980469
-0.05859375
-0.03808594
-0.04394531
-0.046875
-0.046875
-0.0703125
-0.08203125
-0.12597656
-0.05859375
-0.07324219
-0.10253906
-0.14355469
-0.12011719
-0.01757812
-0.00585937
-0.01171875
0.0
0.0
-0.09667969
0.07324219
0.04394531
0.01464844
-0.13769531
-0.00878906
0.06738281
0.00878906
-0.00292969
-0.01171875
-0.046875
-0.234375
0.01464844
0.0
0.10839844
0.04394531
-0.00585937
-0.07617188
-0.00292969
-0.04394531
-0.19042969
0.05859375
0.04394531
-0.02636719
-0.046875
-0.05859375
-0.05273438
-0.05273438
-0.10253906
-0.01464844
-0.05273438
-0.15234375
0.0
0.00292969
0.0234375
-0.03222656
-0.16699219
0.03515625
0.03808594
-0.09667969
0.01171875
-0.18164062
0.00585937
0.10253906
-0.05566406
-0.27246094
-0.09375
-0.01171875
-0.05859375
-0.03515625
0.06738281
0.00292969
0.02636719
-0.03808594
-0.02636719
-0.05566406
-0.01464844
-0.24316406
0.03515625
-0.00292969
-0.03515625
-0.03808594
-0.12890625
-0.09960938
-0.1640625
-0.09082031
-0.04980469
-0.10839844
-0.05859375
-0.046875
-0.06738281
0.05566406
0.0234375
0.01464844
0.00292969
-0.00878906
0.0234375
-0.00585937
-0.02636719
0.00292969
0.05273438
-0.02050781
-0.02050781
-0.02929688
-0.00292969
-0.01757812
-0.05859375
-0.00878906
-0.03808594
-0.03222656
-0.01757812
-0.00878906
-0.04101562
-0.04101562
-0.02929688
-0.01171875
-0.04394531
-0.06445312
-0.06738281
0.01757812
-0.01464844
-0.03515625
-0.0234375
-0.03808594
-0.05859375
-0.0234375
-0.0703125
-0.02929688
-0.0234375
-0.03515625
-0.05859375
-0.07324219
-0.0234375
-0.05859375
-0.03515625
-0.0234375
-0.02050781
-0.06738281
-0.1875
0.04980469
0.01757812
-0.19921875
-0.2109375
-0.0234375
-0.01464844
-0.02929688
-0.07910156
-0.01464844
-0.07910156
-0.03808594
-0.03808594
-0.08789062
-0.05566406
-0.12011719
-0.04394531
-0.15234375
-0.06738281
-0.10253906
0.00878906
-0.02636719
-0.10253906
-0.140625
-0.09082031
-0.10546875
-0.11132812
-0.03515625
-0.05566406
-0.046875
-0.04980469
-0.0234375
0.0
0.0234375
0.01171875
0.00585937
-0.00585937
0.02050781
-0.01171875
-0.0234375
-0.02636719
-0.03515625
-0.01171875
-0.02050781
-0.02636719
-0.03808594
-0.00878906
-0.03808594
-0.00292969
-0.02929688
-0.046875
0.01464844
-0.00878906
-0.01757812
-0.03222656
-0.05566406
0.0
-0.03222656
0.02929688
0.03222656
-0.02636719
-0.01464844
-0.04980469
-0.02929688
-0.06152344
-0.04980469
0.02636719
-0.04394531
0.02050781
0.00878906
-0.01757812
-0.046875
-0.0234375
-0.04101562
-0.06152344
-0.00878906
0.03222656
0.00585937
-0.19921875
-0.19042969
0.04101562
-0.00292969
-0.02050781
0.02050781
-0.03808594
-0.02636719
0.01464844
-0.02050781
-0.02050781
-0.03808594
-0.08496094
-0.046875
-0.06738281
-0.11425781
-0.00878906
-0.02929688
-0.0703125
-0.10253906
-0.1171875
-0.10839844
-0.13476562
-0.06738281
-0.04980469
-0.02050781
-0.05566406
0.05566406
0.07324219
0.01464844
0.01464844
0.00878906
0.00292969
0.05566406
0.00585937
0.01757812
-0.00878906
-0.03515625
-0.046875
-0.0234375
-0.04980469
-0.09960938
-0.07617188
-0.01757812
0.05273438
-0.06738281
-0.00292969
0.00585937
-0.00292969
-0.03808594
-0.09082031
0.01464844
-0.02050781
-0.06445312
-0.02050781
-0.0234375
-0.04101562
-0.00292969
-0.04980469
-0.03515625
-0.07617188
-0.05566406
-0.03515625
-0.03808594
-0.03222656
-0.05273438
-0.04394531
-0.03808594
-0.00292969
-0.02050781
-0.05859375
-0.16992188
-0.24902344
-0.09082031
0.0234375
-0.01464844
0.01464844
0.01757812
-0.00292969
-0.00292969
-0.03515625
-0.046875
-0.046875
-0.05566406
-0.03515625
-0.046875
-0.046875
-0.05273438
-0.09667969
-0.1171875
-0.06152344
-0.09082031
-0.09960938
-0.12011719
-0.0703125
-0.05566406
-0.0703125
-0.01464844
-0.00292969
0.0234375
0.0
-0.00585937
0.00878906
-0.00585937
-0.01464844
-0.01171875
-0.046875
0.00585937
-0.02636719
-0.03222656
-0.03808594
-0.07324219
0.00878906
-0.08496094
-0.02050781
0.03515625
-0.10546875
0.01171875
0.01171875
-0.0234375
-0.06152344
-0.03515625
-0.05566406
-0.02636719
-0.046875
-0.01757812
-0.046875
-0.05859375
-0.05273438
-0.05273438
-0.06738281
-0.03808594
-0.05566406
-0.07617188
-0.04980469
-0.046875
-0.04394531
-0.05859375
-0.02929688
-0.03222656
-0.03222656
-0.04980469
-0.04980469
-0.10546875
-0.30175781
-0.11132812
0.0234375
-0.05273438
-0.01171875
0.0234375
0.00292969
0.01171875
-0.03515625
-0.02636719
-0.03808594
-0.04101562
-0.06738281
-0.0234375
-0.05273438
-0.0703125
-0.09667969
-0.05859375
-0.05566406
-0.08203125
-0.12304688
-0.11425781
-0.09082031
-0.06738281
-0.08496094
-0.02050781
0.02929688
-0.0234375
-0.00292969
0.05566406
0.04101562
0.0234375
-0.00292969
-0.0234375
-0.04980469
-0.00292969
0.00585937
0.00878906
-0.01464844
-0.06152344
-0.04101562
0.02636719
0.03515625
-0.046875
-0.0703125
0.02050781
0.04101562
-0.03222656
0.0
-0.04101562
-0.08203125
0.01171875
0.06445312
-0.01757812
-0.0234375
-0.07324219
-0.08203125
0.00878906
-0.0234375
-0.12011719
-0.01171875
-0.02050781
0.01171875
-0.03222656
-0.046875
-0.01171875
-0.08496094
0.07324219
0.02050781
-0.09960938
-0.28417969
-0.046875
0.09960938
0.00585937
0.02050781
-0.0234375
-0.06738281
-0.02929688
-0.03515625
-0.09960938
-0.04980469
0.01464844
0.04394531
-0.02050781
-0.04394531
-0.05273438
-0.06738281
-0.04101562
-0.13183594
-0.14355469
-0.09082031
-0.0703125
-0.06445312
0.00585937
-0.01464844
-0.04980469
0.04101562
0.00878906
0.02636719
-0.01464844
0.02050781
0.05566406
0.00878906
0.02050781
0.0
-0.0234375
-0.01464844
-0.046875
-0.02929688
-0.04394531
-0.10253906
-0.0234375
-0.03808594
0.0
-0.04101562
-0.01171875
-0.02929688
-0.09375
-0.046875
0.02050781
-0.00878906
-0.05859375
-0.04394531
-0.02636719
-0.05273438
-0.00585937
-0.02929688
-0.07910156
-0.05859375
-0.00585937
-0.03515625
-0.0234375
-0.01464844
-0.02929688
-0.03515625
-0.02636719
-0.08789062
-0.13183594
-0.23730469
-0.04101562
0.03808594
0.01171875
-0.00878906
-0.02050781
-0.05566406
-0.02050781
-0.046875
-0.046875
-0.06152344
-0.06152344
-0.09375
-0.06445312
-0.05273438
-0.09375
-0.03515625
-0.046875
-0.14355469
-0.15527344
-0.15820312
-0.18164062
0.08496094
0.046875
-0.00585937
-0.03222656
-0.01464844
0.01171875
-0.00292969
-0.00878906
0.02929688
0.0
-0.01464844
0.0
-0.01464844
-0.0234375
0.01464844
-0.05566406
-0.0234375
-0.03222656
-0.046875
-0.03222656
-0.03808594
-0.01757812
-0.02636719
-0.02050781
-0.00292969
-0.01757812
-0.02929688
-0.02929688
-0.04394531
-0.01757812
-0.04101562
-0.04980469
0.01757812
-0.10253906
-0.0234375
0.05859375
-0.01757812
-0.02050781
-0.03808594
-0.05273438
-0.06445312
-0.02050781
-0.05566406
-0.00878906
-0.02050781
-0.04980469
-0.03808594
-0.00585937
-0.04980469
-0.28125
-0.14941406
0.00878906
0.00585937
-0.00292969
-0.02050781
-0.03808594
0.0
-0.05273438
-0.00292969
0.0
-0.03515625
-0.04394531
-0.02929688
-0.06152344
-0.046875
-0.02929688
-0.07324219
-0.05859375
-0.08203125
-0.11425781
-0.09375
-0.11132812
-0.09082031
-0.09375
-0.02929688
0.04980469
0.02050781
0.00878906
0.00585937
-0.1171875
0.03515625
0.10546875
0.05273438
0.01464844
-0.00585937
-0.03515625
-0.03808594
-0.02050781
-0.07910156
0.00585937
-0.00292969
-0.02636719
-0.04980469
-0.03808594
-0.05566406
-0.03808594
-0.04101562
-0.07324219
-0.02050781
-0.01171875
-0.02636719
-0.02636719
-0.03808594
-0.03222656
-0.03808594
-0.03808594
-0.04980469
-0.04980469
-0.05273438
-0.00878906
-0.03515625
-0.03222656
-0.07910156
-0.0703125
-0.02636719
-0.03808594
-0.03808594
-0.03808594
-0.02929688
-0.02929688
-0.03222656
-0.06738281
-0.03222656
-0.26074219
-0.08496094
0.02929688
-0.02929688
0.02636719
-0.02636719
-0.03808594
-0.02050781
-0.04394531
-0.07617188
-0.00878906
-0.05566406
-0.03515625
-0.03515625
-0.04394531
-0.05859375
-0.05859375
-0.07617188
-0.08789062
-0.09960938
-0.09960938
-0.10839844
-0.07910156
-0.05273438
-0.04394531
-0.02636719
-0.0234375
0.02050781
0.0234375
0.01757812
0.02929688
0.046875
0.01757812
0.01171875
-0.01757812
-0.04101562
0.01757812
-0.00878906
-0.02929688
-0.03515625
-0.01171875
-0.03515625
-0.02929688
-0.03808594
-0.01171875
-0.02050781
-0.01171875
-0.046875
-0.03222656
-0.02929688
-0.03808594
0.01757812
-0.01464844
-0.16113281
-0.09375
0.05566406
0.01757812
-0.00585937
-0.04394531
-0.05566406
-0.04980469
-0.00292969
-0.01757812
-0.0234375
-0.10253906
-0.03222656
0.01171875
-0.05566406
0.0234375
-0.05859375
-0.20507812
-0.14355469
0.10546875
0.04980469
0.02636719
-0.01464844
-0.04394531
-0.06738281
-0.12597656
0.00292969
0.00292969
-0.03515625
-0.05859375
-0.05273438
-0.09082031
-0.07324219
-0.03222656
-0.09375
-0.08789062
-0.09375
-0.05859375
-0.13476562
-0.08203125
-0.02050781
-0.0234375
-0.08496094
-0.046875
0.09082031
0.09082031
0.04394531
0.03222656
0.00585937
-0.00585937
-0.01171875
-0.02050781
-0.02050781
-0.15527344
-0.07324219
0.0234375
0.0
-0.16992188
-0.14648438
0.11425781
0.13769531
0.04101562
-0.01171875
-0.02636719
-0.04394531
-0.05566406
-0.06445312
-0.046875
-0.04980469
-0.04394531
-0.03222656
-0.05273438
-0.04980469
-0.046875
-0.02636719
-0.03808594
-0.05273438
-0.07324219
-0.07617188
-0.06445312
0.03222656
0.00878906
-0.02050781
-0.04101562
-0.07324219
-0.06445312
-0.03515625
-0.04394531
-0.25195312
-0.06152344
-0.00292969
-0.00292969
-0.046875
-0.03515625
0.00292969
-0.0234375
-0.046875
-0.02929688
-0.0234375
-0.04980469
-0.07617188
-0.0234375
-0.046875
-0.05273438
-0.05566406
-0.09082031
-0.06738281
-0.07324219
-0.09960938
-0.09667969
-0.06738281
-0.06738281
-0.02929688
-0.01171875
0.01464844
-0.00292969
0.02050781
0.02929688
-0.01464844
0.03515625
0.04394531
0.01464844
0.01171875
0.0
-0.0234375
0.0
-0.06445312
0.0234375
0.0234375
-0.01757812
-0.03808594
-0.05273438
-0.06445312
0.01464844
0.00292969
-0.00585937
-0.0234375
-0.03515625
-0.05566406
-0.03515625
-0.08496094
-0.09667969
0.01464844
0.03515625
-0.01171875
-0.05273438
-0.04394531
-0.01464844
-0.11425781
0.0
-0.04394531
-0.03222656
-0.02929688
-0.0234375
-0.02929688
-0.03808594
-0.05273438
-0.03222656
-0.09375
-0.29296875
-0.13769531
0.0234375
0.00878906
0.00292969
-0.0234375
-0.0234375
-0.0234375
-0.02929688
-0.046875
-0.0234375
-0.046875
-0.04980469
-0.04394531
-0.04394531
-0.04980469
-0.10546875
-0.05273438
-0.0703125
-0.10546875
-0.14355469
-0.07910156
-0.10253906
-0.09667969
-0.04980469
-0.07324219
0.01464844
0.02636719
0.0
-0.01464844
0.04394531
0.0
0.00292969
0.0234375
-0.01171875
-0.03515625
0.01171875
-0.00585937
-0.05566406
-0.06738281
0.0
-0.0234375
-0.0234375
-0.0234375
-0.03222656
-0.04101562
-0.02929688
-0.01464844
-0.02050781
-0.03808594
-0.04101562
-0.04394531
-0.02636719
-0.09960938
-0.01464844
-0.01464844
-0.04394531
-0.08203125
-0.09082031
0.00585937
-0.0234375
-0.04980469
-0.03808594
-0.16113281
-0.01171875
0.04980469
0.00878906
-0.04980469
-0.02050781
-0.046875
-0.28125
-0.09375
0.05566406
0.0
-0.07324219
0.02636719
-0.046875
-0.04394531
-0.05273438
-0.04394531
-0.06152344
0.00878906
-0.0703125
-0.01171875
-0.02929688
-0.06738281
-0.08203125
-0.09960938
-0.10253906
-0.11132812
-0.19335937
-0.09082031
-0.04101562
-0.09667969
-0.02636719
-0.01464844
-0.06152344
-0.00292969
0.08203125
0.13769531
0.08203125
-0.03808594
0.03808594
0.03222656
-0.00585937
-0.046875
-0.10253906
-0.02050781
-0.02929688
0.09082031
0.04101562
-0.03222656
0.0
-0.04980469
-0.1875
0.10546875
-0.02050781
-0.08789062
0.10253906
-0.03808594
-0.03222656
-0.02929688
-0.05273438
-0.06152344
-0.046875
0.0234375
-0.10839844
-0.06152344
-0.046875
-0.01171875
-0.16992188
0.08789062
0.06738281
-0.00878906
-0.02636719
-0.02929688
-0.046875
-0.05859375
-0.34570312
-0.1171875
0.09667969
0.02050781
-0.01464844
-0.02929688
-0.03515625
-0.05859375
-0.03515625
-0.10253906
-0.11132812
-0.0234375
0.03222656
0.00878906
-0.05859375
-0.06445312
-0.02929688
-0.07324219
-0.13183594
-0.07324219
-0.09960938
-0.140625
-0.07617188
-0.08496094
-0.0703125
-0.046875
0.00292969
-0.00292969
0.04101562
-0.00585937
0.00878906
0.02050781
-0.01171875
0.01171875
-0.0234375
-0.02050781
0.02636719
-0.00878906
-0.0234375
-0.05859375
-0.01464844
-0.07324219
0.0
0.02636719
0.00878906
0.01464844
-0.01171875
-0.04980469
-0.02929688
-0.04980469
-0.01757812
-0.03808594
-0.01757812
-0.046875
-0.03808594
-0.06738281
-0.06152344
-0.02050781
-0.046875
-0.08496094
-0.03808594
-0.03808594
-0.02636719
-0.02929688
-0.09667969
0.02636719
-0.00878906
-0.02929688
-0.03222656
-0.11132812
-0.3046875
-0.09082031
0.04394531
-0.02636719
-0.01464844
0.01464844
-0.00878906
-0.03222656
-0.02929688
-0.0234375
-0.04101562
-0.03808594
-0.05273438
-0.05566406
-0.05273438
-0.08203125
-0.02929688
-0.08203125
-0.09960938
-0.08496094
-0.16992188
-0.10546875
-0.05566406
-0.14355469
-0.07324219
0.06738281
0.02929688
-0.02050781
0.04394531
-0.01171875
-0.01464844
0.01171875
0.0234375
-0.00585937
-0.02050781
-0.03222656
-0.01757812
-0.05859375
-0.08496094
-0.00585937
-0.03808594
-0.04394531
-0.05859375
-0.03222656
-0.04980469
-0.0234375
-0.02929688
-0.03515625
-0.03515625
-0.04101562
-0.03808594
-0.01757812
-0.03222656
-0.0703125
-0.03222656
-0.03808594
-0.01757812
-0.04394531
-0.05566406
-0.06152344
-0.046875
-0.06738281
-0.01171875
-0.07617188
0.01757812
0.00292969
-0.01171875
-0.02929688
-0.01757812
-0.05273438
-0.26953125
-0.08496094
0.03222656
-0.00292969
-0.02050781
-0.04101562
-0.03808594
-0.02636719
-0.05273438
-0.05859375
-0.05273438
-0.02636719
-0.03808594
-0.05273438
-0.05566406
-0.08789062
-0.05859375
-0.11425781
-0.04394531
-0.10253906
-0.08496094
-0.11132812
-0.06738281
-0.07324219
-0.04394531
-0.01757812
-0.00878906
0.00292969
0.03222656
0.02050781
0.04980469
0.00878906
0.02050781
0.01757812
0.01757812
-0.01757812
-0.01171875
-0.0234375
-0.03808594
-0.04394531
0.00292969
0.00292969
-0.046875
-0.00585937
-0.02050781
-0.04394531
-0.00585937
-0.09960938
-0.03515625
-0.02050781
-0.09375
0.0234375
0.12597656
0.08496094
0.00585937
-0.09667969
-0.11132812
-0.01171875
-0.24609375
0.06445312
0.09960938
0.03222656
0.03222656
-0.00292969
-0.0703125
-0.03515625
-0.13183594
-0.24902344
-0.0234375
0.00878906
-0.04980469
-0.07324219
-0.03515625
-0.03515625
-0.15234375
0.04980469
-0.00292969
-0.09375
-0.05566406
0.06738281
-0.02636719
-0.13769531
-0.09667969
-0.00585937
-0.10839844
-0.046875
-0.046875
-0.11425781
-0.09375
-0.04980469
-0.07617188
-0.03808594
-0.02636719
-0.07617188
-0.00878906
0.05859375
0.03515625
0.01757812
0.0
0.0
-0.03515625
-0.01757812
-0.046875
-0.01171875
-0.00585937
-0.01464844
-0.02050781
-0.03515625
-0.03808594
-0.06738281
-0.046875
-0.07910156
0.03222656
0.00292969
0.00878906
0.0
-0.03808594
-0.046875
-0.01171875
-0.04980469
-0.01464844
-0.02636719
-0.06738281
-0.02929688
-0.03808594
-0.05859375
-0.046875
-0.04980469
-0.03808594
0.0
-0.03808594
-0.07324219
-0.00585937
-0.03222656
-0.0234375
-0.1171875
-0.29296875
-0.08789062
0.02050781
0.0234375
0.00878906
-0.01464844
-0.00585937
-0.01757812
-0.03222656
-0.03515625
-0.06152344
-0.046875
-0.02929688
-0.04101562
-0.04394531
-0.06152344
-0.0703125
-0.09375
-0.06738281
-0.0703125
-0.09375
-0.09960938
-0.08789062
-0.08496094
-0.05273438
-0.02929688
-0.06445312
0.04394531
0.02929688
0.0
-0.05273438
0.02929688
-0.02929688
0.06738281
0.08789062
0.01171875
-0.09082031
-0.05273438
-0.19921875
0.0234375
0.02050781
0.07617188
-0.02636719
0.0234375
-0.04394531
-0.07324219
-0.11425781
0.02050781
-0.11132812
-0.02929688
-0.01464844
-0.00878906
-0.04980469
-0.13769531
0.0703125
0.05273438
-0.0234375
-0.02929688
-0.08496094
-0.07324219
-0.0703125
-0.00585937
-0.08496094
-0.0234375
-0.11425781
0.01171875
-0.04101562
-0.06445312
-0.10546875
-0.24609375
-0.05566406
0.00292969
0.00585937
-0.02929688
0.00585937
-0.00878906
-0.04980469
-0.03515625
-0.02636719
-0.00585937
-0.04980469
-0.06152344
-0.02929688
-0.03808594
-0.09375
-0.00292969
-0.02636719
-0.05273438
-0.15820312
-0.10546875
-0.07910156
-0.08789062
-0.07910156
-0.0234375
-0.05566406
-0.01757812
0.02636719
0.0234375
0.02929688
0.02050781
0.01757812
0.0
0.00878906
-0.01757812
0.00585937
-0.00292969
0.0
-0.01757812
-0.06152344
0.0
-0.02050781
-0.03515625
-0.03808594
-0.00878906
0.0
-0.0234375
-0.01757812
0.01464844
0.00292969
0.0
-0.02050781
-0.01171875
0.00292969
-0.10839844
-0.09082031
0.01464844
0.02050781
0.01464844
-0.01171875
-0.02050781
-0.02636719
-0.04394531
-0.07324219
-0.00292969
-0.03515625
-0.1875
-0.10839844
0.06152344
0.0
-0.07910156
-0.00585937
-0.11425781
-0.05859375
-0.02050781
-0.15820312
0.11425781
-0.046875
0.07910156
0.04980469
-0.03808594
-0.05859375
-0.046875
-0.08203125
-0.12011719
-0.10546875
-0.16699219
-0.10253906
-0.16113281
-0.10839844
0.03515625
-0.26367188
-0.03222656
0.11132812
0.11132812
-0.09375
-0.48046875
0.12011719
0.41894531
0.19042969
0.03808594
-0.01171875
-0.03222656
-0.0703125
-0.00878906
-0.04394531
-0.06738281
-0.02636719
-0.07617188
-0.01171875
-0.00878906
-0.07910156
-0.01171875
-0.03808594
-0.0703125
-0.00292969
0.01757812
-0.08203125
0.02636719
-0.01464844
-0.04980469
-0.04394531
-0.20507812
0.00878906
-0.0234375
0.02050781
-0.00878906
0.01757812
-0.03515625
-0.18457031
-0.09375
0.00292969
-0.0234375
-0.03515625
-0.22265625
0.00878906
0.0234375
-0.04101562
-0.05566406
-0.02050781
-0.06738281
-0.05859375
-0.01464844
-0.14648438
-0.00292969
-0.00292969
-0.07617188
-0.046875
-0.08496094
-0.10546875
-0.10839844
-0.09667969
-0.10839844
-0.12304688
-0.10546875
-0.12890625
-0.07617188
-0.07324219
-0.04980469
-0.04980469
-0.06738281
-0.01171875
0.04101562
0.00585937
0.00878906
0.0234375
0.04101562
-0.02929688
0.00292969
0.01171875
-0.0234375
-0.00585937
-0.06445312
-0.06445312
0.0
-0.00292969
-0.02050781
-0.06152344
-0.10839844
0.04101562
0.01757812
0.00878906
-0.04980469
-0.01171875
-0.05859375
-0.07324219
0.00292969
0.00878906
-0.07617188
-0.04101562
-0.02929688
-0.08496094
-0.00585937
-0.0234375
-0.01171875
-0.04980469
-0.05859375
-0.08203125
-0.04980469
-0.0234375
0.00292969
-0.16992188
-0.20800781
0.00878906
0.00585937
-0.02050781
-0.0234375
0.00585937
-0.09960938
-0.04980469
-0.00292969
-0.1640625
-0.0703125
0.12597656
-0.02636719
0.02050781
-0.03808594
-0.14355469
-0.01464844
-0.12597656
-0.07324219
-0.05566406
-0.1171875
-0.1171875
-0.05859375
-0.00292969
-0.04394531
-0.00292969
0.02050781
0.03808594
0.00585937
0.02929688
-0.046875
-0.06152344
0.02929688
0.01464844
-0.02050781
0.05566406
0.03515625
-0.00585937
-0.12597656
0.01757812
0.02636719
-0.00292969
-0.06738281
0.03515625
-0.06445312
-0.046875
-0.00292969
-0.0234375
-0.06152344
0.05859375
0.02050781
-0.09082031
-0.0234375
0.0
-0.12011719
-0.01464844
0.01757812
-0.00292969
-0.06738281
0.00292969
-0.04394531
-0.17578125
0.03515625
-0.01171875
0.0
0.03222656
-0.02050781
-0.05859375
-0.1171875
-0.21972656
-0.05566406
-0.02050781
0.03515625
-0.06152344
-0.07324219
-0.09082031
-0.02929688
-0.046875
-0.07910156
-0.0703125
-0.0703125
-0.05566406
-0.05859375
-0.09960938
-0.08789062
-0.13769531
-0.09667969
-0.08789062
-0.1171875
-0.17578125
-0.11425781
-0.0703125
-0.08496094
-0.07324219
-0.02636719
-0.00878906
0.00878906
-0.10546875
0.03222656
0.11425781
0.05859375
0.0234375
0.00878906
-0.00585937
0.0234375
-0.0234375
-0.02929688
-0.11132812
-0.00292969
0.04101562
-0.02050781
-0.11425781
-0.05859375
0.10253906
0.06738281
0.02636719
0.01464844
-0.01464844
-0.05566406
-0.0703125
-0.10546875
-0.55371094
0.37792969
0.20214844
0.06738281
0.03222656
-0.01757812
-0.046875
-0.0234375
-0.02929688
-0.04394531
-0.046875
-0.01464844
-0.15234375
-0.26953125
-0.0234375
0.07910156
-0.02050781
-0.04101562
-0.03222656
-0.05273438
-0.04980469
-0.02636719
-0.04101562
-0.11132812
-0.02929688
-0.0234375
-0.046875
-0.10253906
-0.046875
-0.04980469
-0.11425781
-0.046875
-0.25195312
-0.09667969
-0.12304688
-0.10253906
0.01757812
0.01171875
0.03222656
0.02636719
0.08203125
0.04980469
0.04394531
0.0
0.02050781
-0.04394531
0.00878906
-0.00878906
-0.00878906
-0.04101562
-0.02050781
-0.03808594
-0.05859375
-0.05859375
-0.01171875
-0.15234375
0.00292969
-0.00292969
-0.05566406
-0.01757812
0.05566406
-0.00292969
0.0234375
-0.01757812
-0.00292969
-0.05566406
-0.03222656
-0.05566406
-0.04980469
-0.03222656
-0.04394531
-0.05273438
-0.03515625
-0.03222656
-0.01171875
-0.04980469
-0.0703125
-0.07617188
-0.05566406
0.04980469
-0.22558594
-0.21679688
-0.1171875
-0.01171875
0.05859375
0.02636719
0.09375
0.01757812
-0.01464844
-0.02636719
-0.02929688
-0.06445312
-0.06445312
-0.10839844
-0.01464844
-0.02929688
-0.05859375
-0.07324219
-0.09667969
-0.10253906
-0.12597656
-0.07324219
-0.15527344
-0.0234375
-0.08203125
-0.11425781
0.04980469
-0.04394531
0.00585937
0.02636719
0.05859375
0.03515625
0.02636719
-0.00292969
-0.00585937
-0.07324219
-0.01757812
0.02050781
-0.02050781
-0.03808594
-0.04980469
-0.06738281
0.03222656
0.02050781
-0.02050781
-0.03515625
-0.02929688
-0.04394531
-0.046875
0.00292969
-0.02636719
-0.0234375
-0.02050781
-0.03808594
-0.04101562
-0.06445312
-0.03808594
0.01757812
-0.0234375
-0.09375
-0.00878906
-0.01171875
-0.01757812
-0.03808594
-0.02636719
-0.02050781
-0.02929688
-0.046875
-0.14941406
-0.1875
-0.17871094
0.02050781
0.02050781
-0.04980469
-0.02929688
0.046875
-0.0234375
-0.0234375
-0.07617188
-0.05273438
-0.02636719
-0.07617188
-0.01464844
-0.10253906
-0.00585937
-0.05273438
-0.0234375
-0.10253906
-0.04980469
-0.09960938
-0.08203125
-0.10253906
-0.08496094
-0.06445312
-0.046875
-0.02929688
-0.03222656
0.02929688
0.01171875
0.00292969
0.02636719
0.00292969
-0.00585937
-0.00878906
-0.07324219
0.0234375
-0.03515625
-0.14941406
-0.00878906
0.04980469
0.03808594
0.02929688
-0.01171875
-0.03808594
-0.03808594
-0.02636719
-0.04101562
-0.06738281
-0.00878906
0.00292969
-0.09375
-0.05859375
0.03515625
-0.06445312
-0.09667969
0.00292969
0.00878906
-0.05273438
-0.03515625
-0.03515625
-0.04980469
-0.08203125
-0.01171875
0.0
-0.02636719
-0.0234375
-0.234375
-0.13769531
0.05859375
-0.01171875
-0.03222656
-0.01464844
-0.0234375
-0.03515625
-0.06738281
-0.07324219
-0.03808594
-0.02929688
-0.02050781
-0.09667969
-0.03515625
-0.05273438
-0.06445312
-0.12597656
-0.12304688
-0.08496094
-0.07910156
-0.10839844
-0.09667969
-0.00878906
-0.12304688
-0.0234375
0.10546875
0.09375
0.03808594
0.00878906
-0.01464844
-0.14941406
-0.10546875
0.00292969
0.15820312
0.09960938
0.06152344
-0.01171875
-0.01171875
0.0
-0.10546875
-0.00292969
-0.14648438
0.00585937
0.03515625
-0.00292969
-0.01464844
-0.07324219
-0.11132812
-0.07324219
0.04980469
-0.06738281
-0.0234375
0.03222656
0.03515625
0.00585937
-0.04980469
-0.06152344
-0.08789062
-0.00292969
-0.01757812
0.03515625
-0.03515625
-0.10839844
0.046875
-0.03808594
-0.26074219
-0.10839844
0.08496094
-0.04394531
-0.02929688
0.06445312
-0.01171875
-0.02636719
-0.00292969
-0.05859375
-0.03222656
-0.05859375
-0.05273438
-0.06152344
-0.06445312
-0.09375
-0.08789062
-0.05859375
-0.12011719
-0.04980469
-0.06152344
-0.09960938
-0.07324219
-0.04980469
-0.05273438
-0.02929688
-0.046875
0.03808594
0.05273438
-0.00292969
0.04101562
0.00878906
-0.01171875
-0.03222656
-0.15820312
0.01171875
0.02929688
0.02050781
-0.01464844
-0.03808594
-0.03515625
-0.02636719
-0.04980469
-0.10546875
0.02929688
-0.02050781
-0.02050781
-0.03808594
-0.09375
-0.03515625
-0.00292969
-0.04394531
-0.02636719
-0.02636719
0.0
-0.07617188
-0.02636719
-0.05859375
-0.01171875
-0.04394531
-0.07324219
-0.04980469
-0.0234375
0.01464844
-0.05566406
-0.05566406
-0.22265625
-0.23730469
0.01171875
0.04394531
-0.03222656
-0.01464844
-0.00585937
-0.03808594
-0.046875
0.00292969
-0.03222656
-0.06738281
-0.07324219
0.0
-0.01171875
-0.06152344
-0.10546875
-0.06738281
-0.07324219
-0.10839844
-0.02050781
-0.07617188
-0.1171875
-0.09375
-0.05566406
-0.1875
0.03515625
0.08203125
0.03222656
0.03808594
0.01171875
0.0
-0.00878906
-0.02636719
-0.03808594
-0.03808594
-0.03222656
-0.04394531
0.00292969
-0.03222656
-0.03808594
-0.03515625
-0.02636719
-0.0234375
-0.03515625
-0.01757812
-0.04394531
-0.046875
-0.01464844
-0.05273438
-0.00585937
-0.03222656
-0.06152344
-0.02929688
-0.00292969
-0.03808594
-0.046875
-0.10546875
-0.04101562
-0.05566406
0.02929688
-0.04394531
-0.11132812
0.03222656
-0.04980469
-0.01171875
-0.01464844
-0.19921875
-0.23144531
-0.01171875
0.0
0.01171875
0.01171875
-0.02050781
-0.05859375
-0.03515625
-0.04980469
-0.12011719
0.01464844
-0.00292969
-0.046875
-0.06152344
-0.06738281
-0.03515625
-0.15234375
-0.07324219
-0.046875
-0.140625
-0.09375
-0.05859375
-0.09082031
-0.0234375
-0.03808594
-0.046875
0.00878906
0.01171875
0.03808594
0.00585937
0.00585937
0.00878906
-0.0234375
-0.00585937
-0.02050781
0.0
-0.00878906
-0.03515625
-0.02929688
-0.046875
-0.02050781
-0.15820312
0.046875
0.01464844
-0.03515625
-0.08789062
0.02636719
0.09082031
0.09667969
0.03515625
-0.01464844
-0.03222656
-0.05859375
-0.06152344
-0.04394531
-0.02050781
-0.01171875
-0.00292969
-0.00878906
-0.03808594
-0.05859375
-0.03222656
-0.0234375
-0.21679688
-0.11132812
0.05859375
0.0234375
-0.03222656
-0.04980469
-0.05273438
-0.15234375
-0.03808594
0.02929688
-0.02050781
-0.03222656
-0.09082031
-0.05273438
-0.04394531
-0.05566406
-0.09960938
-0.07910156
-0.07324219
-0.09375
-0.10546875
-0.09375
-0.08496094
-0.06152344
-0.04394531
-0.04101562
-0.0234375
0.02050781
0.00585937
0.06738281
0.03808594
0.046875
0.01171875
-0.0234375
-0.01464844
-0.00878906
0.00292969
-0.04394531
-0.01464844
-0.01464844
-0.00585937
-0.04394531
-0.02050781
-0.00585937
-0.02636719
-0.02636719
-0.0234375
0.0
-0.0703125
-0.00292969
-0.00585937
-0.03515625
-0.04980469
-0.00585937
-0.01757812
-0.08203125
-0.01757812
-0.00292969
-0.01757812
-0.01464844
-0.02929688
-0.02929688
-0.0234375
-0.00292969
-0.03808594
-0.00585937
-0.16699219
-0.30761719
-0.05566406
0.04980469
0.03515625
0.0
-0.00585937
-0.02929688
-0.0234375
-0.05859375
-0.01757812
-0.12304688
0.01757812
0.02050781
-0.00878906
-0.06738281
-0.03808594
-0.06445312
-0.09667969
-0.05566406
-0.12304688
-0.07910156
-0.08496094
-0.12890625
-0.12011719
-0.04394531
0.03515625
0.03222656
0.04101562
0.00878906
-0.00585937
-0.00585937
-0.046875
-0.00585937
-0.10253906
-0.13183594
0.07617188
0.08789062
-0.0234375
0.04394531
-0.01171875
-0.08496094
-0.06445312
-0.08496094
-0.04394531
0.03222656
0.0
-0.03515625
-0.04394531
-0.05859375
-0.08203125
-0.06738281
-0.03808594
-0.01464844
-0.13769531
-0.046875
-0.03222656
-0.03515625
-0.10546875
-0.0234375
-0.00585937
-0.02929688
-0.00292969
-0.03222656
-0.03808594
-0.05273438
-0.15234375
-0.3984375
-0.01757812
0.03808594
-0.01171875
0.00878906
0.0
-0.02636719
-0.01757812
-0.03808594
-0.11425781
-0.06738281
0.00878906
-0.01464844
-0.05566406
-0.02636719
-0.10546875
-0.0703125
-0.03808594
-0.13183594
-0.07324219
-0.08203125
-0.07324219
-0.08203125
-0.06738281
-0.11425781
0.01464844
0.00292969
-0.00292969
-0.02929688
0.0
0.02050781
-0.00878906
-0.01757812
-0.06738281
0.02929688
-0.01464844
-0.05859375
-0.04101562
-0.02636719
-0.02929688
-0.02636719
-0.04394531
-0.01171875
-0.02050781
-0.03515625
-0.04980469
-0.01171875
-0.01464844
-0.22265625
-0.04980469
0.02050781
-0.01757812
-0.02929688
-0.07324219
-0.04394531
0.01171875
-0.00878906
-0.046875
-0.046875
-0.05859375
-0.05859375
-0.07324219
-0.10839844
-0.0234375
-0.05859375
-0.13769531
-0.08203125
-0.13476562
-0.15527344
-0.0234375
-0.01757812
-0.03808594
0.00585937
-0.01171875
0.00878906
-0.00292969
-0.00292969
0.03808594
-0.0234375
0.03515625
-0.00292969
-0.01464844
-0.02929688
-0.0234375
-0.06738281
0.00292969
-0.01464844
-0.00585937
-0.03515625
-0.02929688
-0.02929688
-0.10546875
0.01171875
-0.02929688
-0.01464844
0.02636719
-0.01171875
-0.00585937
-0.04394531
0.00878906
-0.03222656
-0.02050781
-0.03515625
-0.03808594
-0.05859375
-0.02929688
-0.00878906
-0.02636719
-0.04980469
-0.0234375
-0.0703125
-0.04980469
-0.00292969
-0.00292969
0.0
-0.01171875
-0.02929688
-0.04394531
-0.03808594
-0.04394531
-0.01171875
-0.03222656
-0.07324219
-0.07324219
-0.02636719
-0.02929688
-0.05273438
-0.03808594
-0.02929688
0.0
0.01464844
-0.0234375
-0.09375
-0.27539062
-0.04394531
0.02050781
0.04394531
0.02050781
-0.00292969
-0.02636719
-0.01757812
-0.02929688
-0.07617188
-0.06738281
0.01757812
-0.02929688
-0.07617188
-0.02636719
-0.03515625
-0.04980469
-0.04101562
-0.07324219
-0.09375
-0.12304688
-0.06738281
-0.10839844
-0.05273438
-0.03515625
-0.02929688
0.0
-0.0234375
-0.02050781
0.00585937
-0.02929688
0.03222656
0.0
-0.07617188
0.03808594
0.0
-0.01464844
-0.03808594
-0.0703125
-0.05859375
0.02636719
-0.05566406
-0.00292969
-0.046875
0.00292969
0.04394531
-0.01171875
-0.01464844
-0.01171875
-0.00292969
-0.02636719
-0.03808594
-0.02929688
-0.02050781
-0.01171875
-0.02929688
-0.05859375
-0.02050781
-0.07910156
0.02636719
0.02050781
-0.10253906
-0.00878906
-0.00878906
-0.02636719
-0.02050781
-0.01464844
-0.046875
-0.0234375
-0.0234375
-0.01171875
-0.16699219
-0.27832031
-0.0234375
0.04980469
0.00878906
-0.01464844
0.0
-0.01171875
-0.01171875
-0.03808594
-0.01757812
-0.0234375
-0.06738281
-0.0234375
-0.03515625
-0.09960938
-0.02929688
-0.0234375
-0.0703125
-0.06738281
-0.05273438
-0.08496094
-0.09375
-0.08496094
-0.08496094
-0.08789062
-0.02636719
0.00292969
0.05273438
0.06445312
0.08496094
0.02929688
0.0
-0.04101562
-0.01757812
-0.03222656
-0.03515625
-0.04394531
-0.05566406
-0.06152344
-0.046875
-0.06738281
-0.02929688
-0.02929688
-0.0234375
-0.02050781
-0.10546875
-0.0703125
0.04394531
0.01464844
-0.03222656
-0.02050781
-0.02050781
-0.05566406
-0.04394531
-0.06738281
-0.08789062
-0.02636719
-0.01464844
-0.03808594
-0.046875
-0.06152344
-0.06152344
-0.05859375
-0.04101562
-0.04980469
-0.02929688
-0.03515625
-0.04980469
-0.03808594
-0.03808594
-0.06738281
-0.24902344
-0.19921875
0.00585937
0.01464844
-0.06152344
-0.05273438
0.02636719
0.0234375
0.00878906
-0.02050781
-0.02929688
-0.04101562
-0.06152344
-0.04394531
-0.06445312
-0.046875
-0.05859375
-0.09082031
-0.06152344
-0.07324219
-0.09082031
-0.09375
-0.07324219
-0.07324219
-0.05273438
-0.03515625
-0.02929688
-0.00878906
0.02636719
0.00878906
0.01464844
0.02636719
0.03515625
-0.02636719
-0.01171875
0.00878906
-0.00585937
-0.01171875
-0.03808594
0.00878906
-0.01171875
-0.07617188
0.04394531
-0.01464844
-0.0234375
-0.06445312
-0.13476562
0.01464844
0.02636719
-0.03222656
0.02050781
0.00878906
-0.03808594
-0.03808594
-0.00292969
-0.07617188
-0.07617188
-0.00878906
-0.05566406
-0.0234375
-0.02050781
-0.046875
0.0
-0.01464844
-0.06738281
-0.08203125
-0.03222656
-0.01464844
-0.08203125
-0.17871094
0.0234375
0.04101562
0.05566406
-0.11425781
-0.02636719
-0.12011719
0.04394531
-0.08496094
0.02050781
-0.01171875
-0.02050781
-0.08496094
-0.05566406
-0.07324219
-0.12304688
-0.11425781
-0.03515625
-0.04394531
-0.07324219
-0.10546875
-0.11132812
-0.07910156
-0.10546875
-0.00585937
0.0
0.00292969
-0.03808594
0.02636719
0.01757812
0.02636719
0.01757812
0.07324219
0.03515625
0.00585937
-0.02636719
-0.05273438
-0.05566406
-0.00585937
-0.046875
-0.00585937
-0.00878906
-0.03808594
-0.0234375
-0.04101562
-0.00585937
-0.0234375
0.0
-0.0234375
-0.03222656
0.00292969
-0.01757812
-0.03808594
-0.02929688
-0.03515625
-0.05859375
-0.04980469
-0.12890625
-0.04394531
0.00292969
-0.03515625
0.00292969
-0.01464844
-0.03515625
-0.08203125
0.01464844
0.00585937
-0.16113281
-0.27246094
-0.02050781
0.01171875
-0.00878906
-0.03808594
-0.00878906
-0.0234375
-0.03808594
-0.03808594
-0.09667969
-0.00878906
-0.04101562
-0.03808594
-0.06152344
-0.140625
-0.07910156
0.02050781
-0.09375
-0.0234375
-0.03808594
-0.10546875
-0.09375
-0.07324219
-0.02929688
-0.03515625
-0.05859375
0.00292969
0.01171875
0.0
0.00292969
0.00292969
-0.00292969
0.0
-0.01757812
-0.046875
0.0
-0.07324219
0.01464844
-0.00292969
-0.01171875
-0.03222656
-0.02050781
-0.03808594
-0.01464844
-0.03222656
-0.04394531
-0.03222656
0.00292969
-0.01757812
-0.02929688
-0.03222656
-0.07324219
0.0
-0.06152344
-0.00585937
-0.00292969
-0.06445312
-0.01757812
-0.01757812
-0.05273438
-0.0234375
-0.05566406
0.0
-0.03515625
-0.04101562
-0.05566406
0.01464844
-0.04394531
-0.06738281
-0.04394531
-0.27832031
-0.14355469
-0.00878906
-0.00292969
0.0
0.0
-0.14355469
0.02050781
0.00878906
-0.04980469
-0.06152344
-0.10839844
0.01757812
0.00292969
0.01464844
-0.02636719
-0.09960938
-0.07617188
-0.06445312
-0.06445312
-0.10253906
-0.10546875
-0.10839844
-0.10253906
-0.17285156
-0.09082031
-0.05566406
0.06152344
0.00292969
0.08789062
-0.01757812
0.04980469
0.03222656
-0.02050781
-0.04980469
-0.00585937
-0.02929688
-0.03515625
-0.07324219
-0.07617188
-0.05273438
-0.02050781
0.00585937
-0.03515625
-0.16699219
0.0
0.01757812
0.01757812
0.01171875
0.00292969
-0.0234375
-0.13769531
-0.06152344
-0.06738281
-0.12890625
0.03808594
0.10546875
0.02636719
-0.03515625
-0.03808594
-0.04394531
-0.05859375
-0.06445312
-0.06738281
-0.06152344
-0.04980469
-0.08203125
-0.00878906
-0.10253906
0.00292969
0.0234375
-0.11132812
0.00878906
0.02050781
-0.20214844
0.09960938
-0.14941406
-0.24316406
0.06152344
0.03808594
-0.10546875
0.05859375
-0.0234375
-0.0234375
0.046875
0.02050781
-0.01464844
-0.05566406
-0.05859375
-0.09667969
-0.06445312
-0.046875
-0.046875
-0.06738281
-0.07910156
-0.12304688
-0.140625
-0.05859375
-0.046875
-0.07324219
-0.10546875
-0.03515625
-0.02929688
-0.04394531
0.0
0.01757812
0.04101562
0.02636719
0.00585937
-0.00878906
-0.05859375
0.0
-0.02636719
0.0
-0.00292969
0.00292969
-0.03808594
-0.03808594
-0.09082031
0.00292969
0.0234375
-0.00878906
-0.00292969
-0.01757812
-0.05859375
-0.02050781
-0.08203125
-0.01171875
0.01464844
-0.00292969
-0.046875
-0.01464844
-0.02636719
-0.04101562
-0.02636719
-0.05566406
-0.00878906
-0.04394531
-0.02929688
-0.04980469
-0.07324219
-0.05859375
-0.03222656
-0.06738281
0.00292969
-0.00292969
0.00585937
-0.01757812
-0.03222656
-0.01464844
-0.15234375
-0.20214844
-0.01171875
0.00585937
0.00878906
-0.03515625
-0.01464844
-0.04394531
-0.19921875
0.03222656
0.01757812
-0.02929688
-0.00292969
-0.03222656
-0.21679688
-0.03808594
0.05859375
-0.01171875
-0.12890625
-0.07617188
-0.18164062
-0.12011719
-0.25488281
0.01171875
0.07324219
-0.00292969
-0.02636719
0.01171875
-0.01464844
-0.04394531
-0.03515625
0.03222656
0.08496094
0.00878906
-0.01464844
0.00878906
-0.0234375
-0.05273438
-0.05273438
-0.01171875
-0.01171875
-0.03808594
-0.04394531
-0.046875
-0.04980469
-0.03808594
-0.00878906
-0.00585937
-0.03808594
-0.01757812
-0.05273438
-0.03222656
-0.22558594
0.10253906
0.06445312
0.04394531
-0.00292969
-0.02050781
-0.03515625
-0.03808594
-0.08496094
-0.00585937
-0.04394531
-0.03808594
-0.02636719
-0.03515625
-0.08203125
-0.05566406
-0.04394531
-0.0234375
-0.04980469
-0.04394531
-0.00292969
-0.06152344
-0.03222656
-0.01171875
-0.05859375
-0.04101562
-0.01171875
-0.12597656
-0.34570312
-0.11425781
0.00585937
0.00878906
-0.03515625
0.01464844
-0.01757812
-0.01757812
-0.02050781
-0.10253906
0.05566406
0.02929688
-0.01171875
-0.046875
-0.05273438
-0.04101562
-0.0703125
-0.03222656
-0.0703125
-0.07910156
-0.08789062
-0.11425781
-0.07617188
-0.04980469
-0.06738281
-0.02050781
-0.0234375
-0.01464844
-0.00292969
0.03515625
0.01757812
0.00878906
-0.02636719
0.03222656
0.00878906
-0.01757812
-0.01171875
-0.08203125
-0.00292969
0.046875
-0.00585937
-0.01757812
-0.02050781
-0.04101562
-0.14355469
0.04980469
0.00292969
-0.01464844
-0.046875
-0.046875
-0.03222656
-0.03808594
-0.20507812
0.00292969
0.03515625
0.02050781
-0.00878906
-0.03515625
-0.04980469
-0.046875
-0.05566406
-0.10253906
-0.046875
-0.03222656
-0.06152344
-0.05859375
-0.01757812
-0.04980469
-0.04394531
-0.03515625
-0.05859375
0.01171875
-0.06152344
-0.04394531
-0.04101562
-0.10546875
-0.05859375
0.00878906
-0.03808594
-0.02050781
0.03515625
-0.00292969
-0.14941406
-0.28710938
-0.11132812
-0.0234375
0.01757812
0.03808594
-0.01171875
0.00878906
-0.046875
-0.08496094
-0.04394531
0.0
-0.13476562
0.00878906
0.00292969
-0.08496094
-0.046875
-0.03808594
-0.11425781
-0.03808594
-0.03515625
-0.03515625
-0.1171875
-0.10839844
-0.07324219
-0.046875
-0.01464844
-0.02636719
0.04101562
-0.01171875
-0.00585937
0.10839844
0.04101562
-0.03808594
0.05566406
-0.01464844
-0.08203125
0.01464844
0.00878906
-0.05566406
-0.10839844
0.02636719
-0.03222656
-0.046875
0.0
-0.02050781
-0.0234375
-0.0234375
-0.04101562
-0.0234375
-0.06152344
-0.02636719
-0.02636719
-0.04101562
-0.06738281
0.00292969
-0.03515625
-0.02636719
-0.02929688
-0.06152344
-0.03222656
-0.03222656
-0.09375
0.00878906
-0.03515625
-0.0234375
-0.07324219
-0.0234375
-0.00292969
-0.01171875
-0.05273438
-0.07617188
0.01171875
-0.07617188
0.01464844
0.0
-0.046875
-0.01757812
-0.00585937
-0.01464844
-0.04101562
-0.29003906
-0.09960938
0.11132812
0.06152344
0.00878906
-0.03808594
-0.04394531
-0.02929688
-0.046875
-0.11132812
-0.06152344
0.02050781
-0.046875
-0.06445312
-0.08203125
-0.03222656
-0.04980469
-0.13476562
-0.10546875
-0.05273438
-0.09960938
-0.10546875
-0.08203125
-0.08789062
-0.07324219
-0.06738281
-0.00878906
-0.03222656
0.00585937
0.04101562
0.0234375
0.01757812
0.00292969
-0.0234375
-0.01757812
-0.00585937
0.0
-0.00585937
-0.00292969
-0.0234375
-0.04980469
-0.05273438
-0.08789062
0.01464844
0.00878906
-0.04394531
-0.03808594
-0.03808594
-0.01171875
-0.0234375
-0.08203125
0.01757812
-0.06738281
-0.02050781
-0.00878906
-0.02636719
-0.03222656
-0.05859375
-0.02636719
0.00585937
-0.02929688
-0.03808594
-0.03808594
-0.06445312
-0.0234375
-0.05859375
-0.04101562
-0.02050781
-0.05859375
-0.05859375
-0.06445312
-0.046875
-0.01464844
-0.00878906
-0.03808594
-0.00585937
-0.01171875
-0.07324219
-0.02050781
-0.22265625
-0.25195312
-0.03222656
0.01757812
0.00585937
-0.0234375
0.046875
-0.01757812
0.0
-0.01464844
-0.00585937
-0.02050781
-0.04394531
-0.03808594
-0.01464844
-0.0234375
-0.05273438
-0.05859375
-0.06738281
-0.07324219
-0.07910156
-0.12890625
-0.09960938
-0.07617188
-0.05273438
-0.09960938
-0.04101562
0.01171875
0.0234375
-0.02929688
-0.07324219
0.03808594
0.08496094
-0.02929688
0.01464844
0.04394531
0.04394531
-0.12890625
-0.00585937
-0.00585937
0.0
-0.06152344
0.02050781
-0.04101562
-0.09667969
-0.07324219
-0.1171875
-0.02050781
0.05859375
0.03222656
-0.01757812
-0.03808594
-0.08789062
-0.11132812
-0.05566406
0.02050781
0.0
-0.04394531
-0.05273438
-0.02929688
-0.09667969
-0.11132812
0.00585937
-0.00585937
-0.04394531
-0.09082031
-0.13183594
-0.02636719
-0.02929688
-0.02929688
-0.0703125
-0.09082031
0.0
-0.03808594
-0.01171875
-0.02636719
-0.13183594
0.02636719
-0.01171875
-0.31933594
-0.20214844
0.05566406
0.04980469
0.07324219
-0.01757812
0.01464844
-0.0703125
0.03515625
-0.0703125
0.01171875
-0.04394531
-0.03515625
-0.0703125
0.02050781
-0.04394531
-0.03808594
-0.03808594
-0.05859375
-0.12890625
-0.03808594
-0.0703125
-0.06445312
-0.08496094
-0.06445312
-0.046875
-0.05273438
0.02050781
0.0234375
0.01171875
0.06152344
0.03515625
0.02636719
0.02050781
-0.046875
0.02050781
0.01757812
0.02050781
0.05859375
0.00292969
-0.01171875
-0.0234375
-0.03515625
-0.05566406
-0.00878906
-0.01464844
-0.07324219
-0.01464844
0.01171875
-0.03515625
-0.04394531
-0.03515625
-0.0234375
-0.046875
-0.08496094
-0.01171875
-0.02929688
-0.07324219
-0.05273438
-0.01757812
-0.0234375
-0.03808594
-0.07617188
-0.02636719
-0.07324219
-0.09375
0.01757812
-0.02929688
-0.03222656
-0.03808594
-0.03808594
-0.02929688
-0.0234375
-0.03808594
-0.02929688
-0.08496094
-0.24023437
-0.07617188
0.0703125
0.02636719
-0.01757812
-0.03808594
-0.03808594
-0.046875
-0.03808594
-0.04101562
-0.07910156
-0.05273438
-0.05273438
-0.03808594
-0.05566406
-0.0703125
-0.06152344
-0.08496094
-0.08496094
-0.09375
-0.13183594
-0.12011719
-0.11132812
-0.140625
-0.03808594
-0.02050781
-0.00292969
0.00878906
0.03222656
0.00878906
0.02050781
0.01464844
0.0234375
-0.01171875
-0.00878906
-0.00292969
0.04394531
0.01757812
-0.0234375
-0.03222656
-0.03808594
-0.046875
-0.03808594
-0.04980469
-0.03808594
-0.03515625
-0.046875
-0.04394531
-0.03515625
-0.03222656
-0.03808594
-0.04394531
-0.02929688
-0.03515625
-0.04394531
-0.046875
-0.04101562
-0.04101562
-0.04101562
-0.046875
-0.03808594
-0.04394531
-0.04101562
-0.03808594
-0.06738281
-0.04394531
-0.03515625
-0.04101562
-0.03515625
-0.03808594
-0.03222656
-0.03515625
-0.04101562
-0.04101562
-0.15820312
-0.27832031
-0.02929688
0.0234375
0.00585937
-0.00878906
-0.00292969
-0.01757812
-0.02636719
-0.0234375
-0.02929688
-0.03515625
-0.0234375
-0.04394531
-0.02929688
-0.046875
-0.05273438
-0.06152344
-0.0703125
-0.08203125
-0.09082031
-0.10839844
-0.08789062
-0.08789062
-0.07324219
-0.05273438
-0.02929688
-0.00292969
0.0
0.01464844
0.01464844
0.01757812
0.01464844
0.00878906
0.01171875
-0.00292969
-0.00585937
-0.02050781
-0.0234375
-0.0234375
-0.01757812
-0.0234375
-0.02929688
-0.03222656
-0.01757812
-0.02636719
-0.02050781
-0.02050781
-0.0234375
-0.02050781
-0.02636719
-0.02050781
-0.01757812
-0.03515625
-0.03222656
-0.02636719
-0.02636719
-0.03515625
-0.02929688
-0.03808594
-0.03515625
-0.04101562
-0.02929688
-0.04394531
-0.05273438
-0.05273438
-0.03808594
-0.03222656
-0.03515625
-0.03808594
-0.04101562
-0.04101562
-0.046875
-0.04980469
-0.07324219
-0.25488281
-0.11425781
0.01171875
0.0
-0.02929688
-0.02050781
-0.03515625
-0.03222656
-0.03808594
-0.03222656
-0.046875
-0.05273438
-0.05273438
-0.05566406
-0.06738281
-0.0703125
-0.07324219
-0.08203125
-0.09375
-0.10546875
-0.10839844
-0.11132812
-0.11425781
-0.09960938
-0.07910156
-0.06152344
-0.03222656
-0.01757812
-0.01171875
0.0
-0.01171875
0.0
-0.00585937
0.0
-0.00292969
-0.01171875
-0.02636719
-0.0234375
-0.02929688
-0.02929688
-0.04101562
-0.02929688
-0.03515625
-0.04394531
-0.03515625
-0.03222656
-0.04101562
-0.03515625
-0.03808594
-0.03222656
-0.03808594
-0.03222656
-0.03222656
-0.02929688
-0.03808594
-0.03515625
-0.03515625
-0.03222656
-0.03808594
-0.04394531
-0.04394531
-0.03808594
-0.03222656
-0.02929688
-0.04101562
-0.03515625
-0.046875
-0.03222656
-0.05273438
-0.01757812
-0.12011719
-0.16699219
0.00878906
0.02636719
-0.0234375
-0.04394531
-0.046875
-0.04394531
-0.046875
-0.04101562
-0.046875
-0.046875
-0.04394531
-0.046875
-0.046875
-0.04980469
-0.05273438
-0.05859375
-0.06445312
-0.07324219
-0.09375
-0.09667969
-0.09667969
-0.08203125
-0.05859375
-0.03808594
-0.01171875
0.00878906
0.0234375
0.02636719
0.02636719
0.02929688
0.0234375
0.01757812
0.00292969
-0.00292969
0.00292969
-0.00585937
-0.01757812
-0.01757812
-0.02050781
-0.02050781
-0.02050781
-0.02050781
-0.02636719
-0.01757812
-0.02050781
-0.01171875
-0.0234375
-0.02636719
-0.02636719
-0.02050781
-0.0234375
-0.0234375
-0.02929688
-0.02929688
-0.02636719
-0.03515625
-0.03515625
-0.03222656
-0.05859375
-0.02929688
-0.02929688
-0.02636719
-0.02636719
-0.02636719
-0.02929688
-0.03515625
-0.03808594
-0.02636719
-0.17578125
-0.21386719
-0.00585937
0.0234375
-0.00878906
-0.02050781
-0.02636719
-0.02929688
-0.0234375
-0.02929688
-0.03515625
-0.03515625
-0.04101562
-0.04394531
-0.04394531
-0.04394531
-0.05273438
-0.05566406
-0.06738281
-0.08203125
-0.09375
-0.08496094
-0.09375
-0.07324219
-0.05859375
-0.03515625
-0.01464844
-0.00292969
-0.00292969
0.01464844
0.00878906
0.01757812
0.00878906
0.00292969
0.00292969
-0.00292969
-0.01171875
-0.02050781
-0.02050781
-0.02050781
-0.0234375
-0.01757812
-0.02636719
-0.0234375
-0.03222656
-0.0234375
-0.02636719
-0.0234375
-0.03222656
-0.02636719
-0.0234375
-0.01464844
-0.02636719
-0.03222656
-0.03515625
-0.02636719
-0.03515625
-0.02050781
-0.03515625
-0.03222656
-0.03808594
-0.03515625
-0.05273438
-0.03222656
-0.03222656
-0.0234375
-0.02929688
-0.03222656
-0.03222656
-0.02929688
-0.04394531
-0.03515625
-0.23144531
-0.26074219
-0.0703125
0.06445312
-0.046875
0.09667969
0.0703125
0.01171875
-0.09375
-0.22851562
-0.03515625
0.14355469
0.06738281
0.00292969
-0.02050781
-0.05273438
-0.07324219
-0.07910156
-0.09082031
-0.10253906
-0.11132812
-0.1171875
-0.08789062
-0.10839844
-0.08789062
-0.04980469
-0.04394531
-0.00878906
0.01757812
0.0
-0.06738281
0.02050781
0.046875
-0.09082031
0.08789062
0.04980469
0.0
-0.01757812
-0.04394531
-0.04980469
-0.07910156
-0.01757812
-0.0234375
-0.09960938
0.0
-0.01464844
0.01757812
0.01757812
-0.0234375
-0.0234375
-0.02929688
-0.046875
-0.04394531
-0.05273438
-0.03808594
-0.03515625
-0.01464844
-0.0234375
-0.04394531
-0.02929688
-0.09375
0.00585937
-0.01464844
-0.02929688
-0.03222656
-0.0234375
-0.0234375
-0.03515625
-0.02929688
-0.02929688
-0.02929688
-0.046875
-0.21679688
-0.07617188
0.05273438
0.01757812
-0.02929688
-0.02929688
-0.05273438
-0.03808594
-0.03808594
-0.03808594
-0.02636719
-0.03222656
-0.03808594
-0.04980469
-0.04980469
-0.05273438
-0.06152344
-0.0703125
-0.07324219
-0.08789062
-0.11132812
-0.09082031
-0.09082031
-0.14355469
-0.04980469
0.02636719
0.01757812
0.01171875
0.02636719
0.02636719
0.02050781
0.00878906
0.02050781
0.00585937
-0.00585937
-0.01464844
-0.01171875
-0.02636719
-0.01171875
-0.01757812
-0.02050781
-0.02636719
-0.0234375
-0.0234375
-0.01757812
-0.01757812
-0.01464844
-0.02636719
-0.03515625
-0.01171875
-0.02050781
-0.03808594
-0.02929688
-0.02636719
-0.06738281
-0.04101562
-0.02636719
-0.01464844
-0.02636719
-0.02050781
-0.0234375
-0.0234375
-0.03808594
-0.03515625
-0.05273438
-0.1875
-0.03222656
0.046875
-0.00585937
-0.04980469
-0.04394531
-0.04101562
-0.05273438
-0.05859375
-0.06738281
-0.04980469
-0.0234375
-0.03808594
-0.05273438
-0.07324219
-0.12890625
-0.07617188
-0.07324219
-0.08203125
-0.10839844
-0.08203125
-0.09960938
-0.07910156
-0.09082031
-0.04980469
-0.01464844
-0.05273438
-0.03808594
0.05859375
0.05273438
0.02636719
0.01464844
-0.00292969
-0.0234375
-0.01464844
-0.0234375
-0.02050781
-0.04394531
-0.046875
-0.046875
-0.01757812
-0.03808594
-0.01171875
-0.01464844
-0.08203125
-0.0234375
0.0
-0.06738281
-0.00292969
-0.00585937
-0.08789062
-0.13183594
-0.01757812
0.05273438
0.00585937
-0.04394531
-0.02929688
-0.06445312
-0.08496094
-0.11132812
0.09082031
0.03515625
-0.00292969
-0.0234375
-0.04101562
-0.07324219
-0.30761719
-0.11425781
0.00585937
0.01171875
-0.0234375
-0.08203125
0.0
-0.01757812
-0.02050781
-0.04101562
-0.04101562
-0.04980469
-0.05566406
-0.05859375
-0.04394531
-0.0703125
-0.06445312
-0.07617188
-0.10253906
-0.13183594
-0.06152344
-0.06738281
-0.08496094
-0.08203125
-0.06152344
-0.03515625
-0.02636719
-0.03222656
0.00585937
0.0
0.02050781
0.00878906
0.00292969
0.0
-0.00585937
-0.02050781
-0.02050781
-0.01464844
-0.0234375
-0.02636719
-0.01757812
-0.02636719
-0.03222656
-0.02050781
-0.02636719
-0.02929688
-0.0234375
-0.02636719
-0.01757812
-0.04101562
-0.02050781
-0.04101562
-0.03808594
-0.02636719
-0.04101562
-0.04980469
-0.02929688
-0.01464844
-0.0234375
-0.01464844
-0.02050781
-0.01464844
-0.02050781
-0.03515625
-0.04101562
-0.2109375
-0.24609375
0.0234375
0.04394531
0.00585937
0.00292969
-0.00585937
-0.01171875
-0.01464844
-0.02636719
-0.03515625
-0.03515625
-0.04101562
-0.03808594
-0.05273438
-0.05566406
-0.06738281
-0.06445312
-0.07324219
-0.08496094
-0.08789062
-0.09082031
-0.08496094
-0.07324219
-0.05859375
-0.03808594
-0.01757812
-0.00292969
0.00878906
0.01757812
0.00878906
0.01464844
0.00292969
0.00292969
-0.01464844
-0.01171875
-0.02929688
-0.02636719
-0.03222656
-0.03808594
-0.03222656
-0.02929688
-0.0234375
-0.03515625
-0.02929688
-0.03515625
-0.03808594
-0.03222656
-0.04101562
-0.03808594
-0.03808594
-0.04101562
-0.03808594
-0.03808594
-0.046875
-0.04101562
-0.05273438
-0.07324219
-0.05566406
-0.04101562
-0.03515625
-0.03515625
-0.03515625
-0.04101562
-0.03808594
-0.04394531
-0.02050781
-0.09375
-0.26074219
-0.046875
0.04101562
-0.00292969
-0.0234375
-0.03515625
-0.0234375
-0.03808594
-0.05273438
-0.03515625
-0.046875
-0.046875
-0.05273438
-0.05273438
-0.06152344
-0.06445312
-0.0703125
-0.07617188
-0.08496094
-0.10546875
-0.10546875
-0.09375
-0.07324219
-0.0703125
-0.07324219
-0.03808594
-0.00585937
0.0
0.00878906
0.0234375
0.00878906
0.02050781
0.0
-0.00292969
-0.00878906
-0.01171875
-0.01757812
-0.01757812
-0.02929688
-0.03222656
-0.03222656
-0.02636719
-0.02929688
-0.01171875
-0.02050781
-0.01464844
-0.01464844
-0.02929688
-0.02050781
-0.01757812
-0.0234375
-0.01464844
-0.0234375
-0.046875
-0.02636719
-0.01757812
-0.00878906
-0.01464844
-0.02636719
-0.00585937
-0.02050781
-0.0234375
-0.01757812
-0.0234375
-0.1875
-0.06738281
0.07324219
0.02636719
-0.01757812
-0.02636719
-0.02636719
-0.0234375
-0.0234375
-0.03808594
-0.03808594
-0.03515625
-0.03808594
-0.05273438
-0.05273438
-0.04394531
-0.05859375
-0.07910156
-0.08496094
-0.08203125
-0.09667969
-0.09082031
-0.08496094
-0.06445312
-0.046875
-0.0234375
-0.01171875
0.01171875
0.0234375
0.02636719
0.02050781
0.01757812
0.00878906
-0.00292969
-0.01171875
-0.0234375
-0.0234375
-0.03515625
-0.0234375
-0.03515625
-0.02636719
-0.02929688
-0.02929688
-0.03515625
-0.0234375
-0.03515625
-0.03808594
-0.03808594
-0.03222656
-0.02636719
-0.04101562
-0.03808594
-0.02929688
-0.02636719
-0.046875
-0.03515625
-0.03515625
-0.04980469
-0.03515625
-0.02636719
-0.03515625
-0.0234375
-0.02929688
-0.03222656
-0.03515625
-0.02929688
-0.05859375
-0.26367188
-0.20507812
0.00878906
0.0234375
0.0
0.00292969
-0.01171875
-0.01464844
-0.02050781
-0.02636719
-0.03222656
-0.03515625
-0.03808594
-0.046875
-0.03808594
-0.05273438
-0.05566406
-0.06738281
-0.0703125
-0.09082031
-0.08203125
-0.08496094
-0.07324219
-0.07617188
-0.05566406
-0.03222656
-0.00878906
-0.01171875
0.0
0.00292969
0.00878906
0.00292969
0.00878906
-0.00292969
-0.01464844
-0.01464844
-0.0234375
-0.03515625
-0.01757812
-0.02050781
-0.02929688
-0.02050781
-0.02929688
-0.02636719
-0.02636719
-0.02636719
-0.02929688
-0.0234375
-0.02636719
-0.0234375
-0.03222656
-0.02929688
-0.0234375
-0.04101562
-0.03222656
-0.02929688
-0.03808594
-0.04980469
-0.03515625
-0.02929688
-0.0234375
-0.02929688
-0.01757812
-0.03515625
-0.04101562
-0.03222656
-0.03808594
-0.18164062
-0.3046875
-0.02636719
0.03222656
0.00292969
-0.01464844
-0.01757812
-0.00585937
-0.0234375
-0.02636719
-0.02929688
-0.0234375
-0.03808594
-0.04101562
-0.04101562
-0.04980469
-0.07324219
-0.06445312
-0.07910156
-0.08203125
-0.08789062
-0.09082031
-0.07910156
-0.0703125
-0.06738281
-0.04394531
-0.02636719
-0.00292969
0.00292969
0.00878906
0.00878906
0.01464844
0.00878906
-0.00292969
-0.00585937
-0.01757812
-0.01464844
-0.02636719
-0.03808594
-0.02050781
-0.02636719
-0.03222656
-0.0234375
-0.02636719
-0.02929688
-0.02636719
-0.02929688
-0.03222656
-0.03222656
-0.02636719
-0.03808594
-0.0234375
-0.02929688
-0.02636719
-0.03515625
-0.03808594
-0.03222656
-0.03808594
-0.02929688
-0.03808594
-0.05859375
-0.046875
-0.03808594
-0.04394531
-0.03808594
-0.02636719
-0.0234375
-0.03515625
-0.03515625
-0.00585937
-0.1171875
-0.21972656
-0.00292969
0.03808594
-0.01171875
-0.03808594
-0.04101562
-0.046875
-0.04394531
-0.05859375
-0.04980469
-0.046875
-0.06738281
-0.05273438
-0.05273438
-0.05859375
-0.06445312
-0.07324219
-0.08496094
-0.08496094
-0.10546875
-0.09960938
-0.08496094
-0.07910156
-0.05859375
-0.03808594
-0.0234375
0.00878906
0.00878906
0.01171875
0.02636719
0.01464844
0.00878906
0.00292969
-0.00292969
-0.00292969
-0.00292969
-0.01464844
-0.02050781
-0.02050781
-0.0234375
-0.0234375
-0.01757812
-0.01757812
-0.02050781
-0.01171875
-0.01757812
-0.01464844
-0.01464844
-0.0234375
-0.0234375
-0.02636719
-0.02050781
-0.02636719
-0.03515625
-0.03515625
-0.03515625
-0.05859375
-0.04394531
-0.02636719
-0.0234375
-0.02636719
-0.01757812
-0.03222656
-0.0234375
-0.02636719
-0.02636719
-0.07910156
-0.27246094
-0.05566406
0.046875
0.01171875
-0.0234375
-0.02050781
-0.03515625
-0.03515625
-0.046875
-0.04394531
-0.046875
-0.046875
-0.046875
-0.046875
-0.05273438
-0.06738281
-0.06445312
-0.06738281
-0.08789062
-0.08789062
-0.10253906
-0.08496094
-0.08496094
-0.04980469
-0.04101562
-0.0234375
-0.01171875
0.00292969
0.01171875
0.0
0.01757812
0.01464844
-0.00292969
-0.00878906
-0.01757812
-0.01464844
-0.02050781
-0.02636719
-0.02929688
-0.02636719
-0.03808594
-0.02636719
-0.03808594
-0.03515625
-0.02636719
-0.02050781
-0.0234375
-0.02636719
-0.03808594
-0.03808594
-0.03222656
-0.03808594
-0.03222656
-0.02636719
-0.04394531
-0.01464844
-0.04101562
-0.04980469
-0.03222656
-0.04394531
-0.06738281
-0.03222656
-0.02929688
-0.02929688
-0.0234375
-0.03808594
-0.0234375
-0.02636719
-0.03222656
-0.0234375
-0.14941406
-0.31054687
-0.04101562
0.02929688
0.0234375
-0.00292969
-0.00292969
-0.02050781
-0.02050781
-0.0234375
-0.03222656
-0.0234375
-0.046875
-0.04101562
-0.05566406
-0.05273438
-0.05273438
-0.06152344
-0.07617188
-0.07910156
-0.09082031
-0.09667969
-0.09082031
-0.06738281
-0.06445312
-0.05859375
-0.0234375
-0.01464844
0.00292969
0.01171875
0.00878906
-0.00292969
0.0
0.0
-0.01171875
-0.00585937
-0.0234375
-0.01464844
-0.01757812
-0.0234375
-0.0234375
-0.03808594
-0.02929688
-0.02636719
-0.0234375
-0.03515625
-0.0234375
-0.03222656
-0.02929688
-0.02929688
-0.03515625
-0.02929688
-0.04101562
-0.02636719
-0.02050781
-0.03222656
-0.03222656
-0.03222656
-0.03222656
-0.03808594
-0.04101562
-0.02929688
-0.046875
-0.06738281
-0.05273438
-0.02929688
-0.02929688
-0.03808594
-0.03515625
-0.02929688
-0.04101562
-0.04101562
-0.04394531
-0.18164062
-0.28125
-0.02050781
0.02636719
0.00292969
-0.02050781
-0.02636719
-0.03222656
-0.03808594
-0.03515625
-0.04101562
-0.046875
-0.046875
-0.046875
-0.04980469
-0.05859375
-0.06152344
-0.07324219
-0.07617188
-0.09960938
-0.09667969
-0.09960938
-0.09082031
-0.08203125
-0.06445312
-0.04980469
-0.0234375
-0.00878906
0.00292969
0.01171875
0.00878906
0.00878906
0.00878906
0.0
-0.00292969
-0.01757812
-0.01464844
-0.01464844
-0.02636719
-0.0234375
-0.03222656
-0.02929688
-0.02636719
-0.03515625
-0.03515625
-0.0234375
-0.01171875
-0.02929688
-0.0234375
-0.02636719
-0.02050781
-0.02636719
-0.02050781
-0.02929688
-0.02050781
-0.0234375
-0.03515625
-0.03515625
-0.03222656
-0.03808594
-0.03808594
-0.046875
-0.05859375
-0.046875
-0.02636719
-0.02929688
-0.02929688
-0.0234375
-0.02929688
-0.03515625
-0.04101562
-0.01171875
-0.14355469
-0.14941406
0.04980469
0.03808594
-0.0234375
-0.03515625
-0.02636719
-0.046875
-0.03808594
-0.03515625
-0.03808594
-0.03808594
-0.04980469
-0.05273438
-0.04980469
-0.04980469
-0.046875
-0.08203125
-0.09960938
-0.10546875
-0.06152344
-0.07617188
-0.05859375
-0.06152344
-0.04394531
-0.02929688
0.0
0.00878906
0.0234375
0.01464844
0.02050781
0.02050781
0.01171875
0.02050781
0.00292969
-0.01464844
-0.00292969
-0.01757812
-0.0234375
-0.02929688
-0.03222656
-0.02636719
-0.0234375
-0.03515625
-0.0234375
-0.02636719
-0.02636719
-0.02929688
-0.03515625
-0.02050781
-0.03515625
-0.03222656
-0.03222656
-0.04980469
-0.04394531
-0.04980469
-0.046875
-0.05859375
-0.04980469
-0.04980469
-0.05273438
-0.07324219
-0.06738281
-0.05566406
-0.04394531
-0.03808594
-0.04101562
-0.03515625
-0.0234375
-0.03808594
-0.03808594
-0.09960938
-0.30175781
-0.09082031
0.02636719
0.0
-0.02050781
0.0
-0.0234375
-0.02929688
-0.01757812
-0.03515625
-0.02636719
-0.04394531
-0.03515625
-0.046875
-0.04980469
-0.046875
-0.05859375
-0.05859375
-0.06738281
-0.09375
-0.09960938
-0.08203125
-0.08203125
-0.07324219
-0.046875
-0.09375
-0.03515625
-0.08203125
0.08789062
0.08203125
0.07617188
0.04394531
0.01464844
0.00292969
-0.02636719
-0.06445312
-0.08496094
0.0
0.03515625
-0.01464844
0.00878906
-0.0234375
-0.01464844
-0.03515625
-0.02929688
-0.06152344
-0.05273438
0.01171875
-0.046875
0.0
-0.00292969
-0.02050781
-0.04394531
-0.03222656
-0.04980469
-0.06738281
-0.046875
-0.06152344
-0.04980469
-0.01171875
-0.03222656
-0.03515625
-0.03222656
-0.03515625
-0.046875
-0.0234375
-0.03515625
-0.04394531
-0.03222656
-0.0703125
-0.27539062
-0.13476562
0.04394531
0.02050781
-0.01464844
-0.01464844
-0.03222656
-0.01171875
-0.01171875
-0.02050781
-0.03515625
-0.03515625
-0.04394531
-0.04101562
-0.046875
-0.046875
-0.046875
-0.05859375
-0.08203125
-0.09960938
-0.08203125
-0.09375
-0.09375
-0.06152344
-0.04101562
-0.02636719
0.01757812
0.02050781
0.04394531
0.04101562
0.03222656
0.02050781
0.01757812
0.03515625
0.01464844
0.0
-0.00585937
-0.01464844
-0.01757812
-0.02050781
-0.0234375
-0.02929688
-0.0234375
-0.03515625
-0.0234375
-0.01757812
-0.01464844
-0.01171875
-0.02050781
-0.01757812
-0.03808594
-0.02929688
-0.03515625
-0.03515625
-0.046875
-0.04101562
-0.03808594
-0.00292969
-0.0234375
-0.02050781
-0.02636719
-0.03222656
-0.03808594
-0.01171875
-0.11425781
-0.2109375
0.00585937
0.04394531
-0.00585937
-0.03808594
-0.03808594
-0.02929688
-0.02929688
-0.04394531
-0.05273438
-0.05273438
-0.04394531
-0.06445312
-0.06152344
-0.04980469
-0.07617188
-0.08203125
-0.09375
-0.11132812
-0.11425781
-0.13769531
-0.10546875
-0.08203125
-0.07324219
-0.046875
-0.01757812
0.00292969
0.01171875
0.01464844
0.02636719
0.00878906
0.02050781
0.01464844
0.00878906
-0.00585937
-0.01464844
-0.01464844
-0.02050781
-0.0234375
-0.0234375
-0.03222656
-0.03515625
-0.01757812
-0.04980469
0.0
-0.01464844
-0.03808594
-0.01171875
-0.0234375
-0.03515625
-0.03515625
-0.046875
-0.02636719
-0.03808594
-0.01757812
-0.03515625
-0.00878906
-0.04101562
-0.0234375
-0.01464844
-0.0234375
-0.0234375
-0.01464844
-0.16699219
-0.22558594
0.01757812
0.03515625
-0.01171875
-0.04101562
-0.04101562
-0.046875
-0.03808594
-0.02929688
-0.04394531
-0.03808594
-0.05566406
-0.06738281
-0.07324219
-0.05859375
-0.10839844
-0.03808594
-0.0703125
-0.09375
-0.08789062
-0.09667969
-0.08203125
-0.09960938
-0.10546875
-0.0234375
0.01757812
0.00292969
0.01171875
0.00878906
0.00585937
0.00585937
0.01757812
0.01171875
-0.01171875
-0.00292969
-0.02050781
-0.02929688
-0.046875
-0.046875
0.0
-0.0234375
-0.01464844
0.0
-0.01171875
-0.02050781
-0.0234375
-0.03808594
-0.03808594
-0.0234375
-0.04101562
-0.02636719
-0.03808594
-0.05566406
-0.0234375
-0.0234375
-0.02929688
-0.02636719
-0.0234375
-0.03808594
-0.02929688
-0.03808594
-0.06738281
-0.23730469
-0.16699219
0.046875
0.0
0.01757812
-0.05859375
-0.29589844
-0.09960938
0.17871094
0.09375
0.00292969
-0.01171875
-0.03808594
-0.06445312
-0.08496094
-0.03808594
-0.06152344
-0.07910156
-0.09375
-0.11425781
-0.12597656
-0.10839844
-0.10839844
-0.09960938
-0.07324219
-0.04394531
-0.01757812
0.01171875
0.01464844
0.02636719
0.00878906
-0.0234375
-0.01171875
0.02636719
-0.00292969
0.00292969
-0.00585937
-0.03515625
-0.04101562
-0.04394531
-0.00585937
-0.03222656
-0.0703125
-0.0234375
0.0
-0.06445312
-0.046875
-0.02050781
-0.06152344
-0.01757812
0.02929688
-0.01171875
-0.03808594
-0.06152344
-0.05273438
-0.06445312
-0.04394531
0.03222656
0.0234375
-0.0234375
-0.00585937
-0.04394531
-0.01757812
-0.06152344
-0.26660156
-0.15234375
0.02050781
0.00878906
-0.01464844
-0.04980469
-0.02050781
-0.01171875
-0.01757812
-0.01171875
-0.03515625
-0.046875
-0.046875
-0.046875
-0.06152344
-0.07324219
-0.03808594
-0.08496094
-0.07617188
-0.07324219
-0.09375
-0.11132812
-0.09082031
-0.0703125
-0.05859375
-0.0234375
-0.03808594
-0.04101562
-0.00292969
0.01757812
0.00878906
0.00878906
0.0
0.0
0.01171875
-0.046875
-0.02050781
0.01171875
-0.03515625
-0.02929688
-0.02636719
-0.046875
-0.02929688
-0.03515625
-0.07324219
-0.02636719
-0.04394531
-0.05273438
-0.11425781
0.01757812
-0.01171875
-0.02050781
-0.02929688
-0.04101562
-0.06152344
-0.04980469
-0.0234375
-0.02050781
-0.03222656
-0.046875
-0.03515625
-0.04980469
-0.03808594
-0.00585937
-0.15527344
-0.20800781
0.01464844
0.03515625
-0.0234375
-0.04101562
-0.04101562
-0.04101562
-0.04101562
-0.04394531
-0.05859375
-0.046875
-0.046875
-0.046875
-0.046875
-0.046875
-0.06738281
-0.07910156
-0.08496094
-0.1171875
-0.10546875
-0.09082031
-0.09375
-0.09960938
-0.05566406
-0.04394531
-0.02636719
-0.01464844
-0.00292969
-0.00585937
0.01464844
-0.00585937
0.01757812
0.01171875
0.00292969
-0.00878906
-0.02636719
-0.01464844
-0.03515625
-0.02050781
-0.04394531
-0.01757812
-0.00292969
-0.02050781
-0.0234375
-0.02929688
-0.02636719
-0.03515625
-0.0234375
-0.046875
-0.04980469
-0.04101562
-0.03808594
-0.05273438
-0.01171875
-0.01464844
-0.02636719
-0.01757812
-0.0234375
-0.02636719
-0.03515625
-0.02636719
0.00292969
-0.07324219
-0.23730469
-0.02636719
0.05566406
-0.00878906
-0.04980469
-0.0234375
-0.03515625
-0.00878906
-0.04101562
-0.03808594
-0.04980469
-0.04101562
-0.04394531
-0.06445312
-0.06738281
-0.0703125
-0.08203125
-0.09082031
-0.11425781
-0.11132812
-0.09375
-0.09667969
-0.08496094
-0.05859375
-0.02636719
-0.02050781
0.00292969
0.01757812
0.00292969
0.02050781
0.00585937
0.00585937
-0.00292969
-0.00878906
-0.01171875
-0.02050781
-0.02929688
-0.03808594
-0.03808594
-0.04394531
-0.03222656
-0.03515625
-0.02050781
-0.03515625
-0.02929688
-0.0234375
-0.02050781
-0.0234375
-0.0234375
-0.02636719
-0.02636719
-0.03515625
-0.04394531
-0.02929688
-0.04980469
-0.05273438
-0.05273438
-0.01171875
-0.00878906
-0.01757812
-0.02929688
-0.01757812
-0.03808594
-0.0234375
-0.05273438
-0.26953125
-0.13476562
0.0
0.02050781
-0.00292969
-0.00585937
-0.02929688
-0.03515625
-0.04980469
-0.04980469
-0.01464844
-0.03808594
-0.01171875
-0.03222656
-0.02636719
-0.05273438
-0.06152344
-0.07617188
-0.0703125
-0.07910156
-0.09375
-0.09375
-0.09082031
-0.06738281
-0.05273438
-0.04394531
-0.00585937
-0.01464844
0.01171875
0.00878906
0.0
0.00292969
-0.00878906
0.01171875
-0.00585937
-0.00585937
-0.01757812
-0.01171875
-0.03222656
-0.03515625
-0.02929688
-0.02050781
-0.01171875
-0.00585937
-0.0234375
-0.02050781
-0.02050781
-0.01171875
-0.02929688
-0.04980469
-0.04101562
-0.02636719
-0.01464844
-0.02050781
-0.03808594
-0.03222656
-0.0234375
-0.02050781
-0.02050781
-0.03515625
-0.02636719
-0.01171875
-0.03808594
-0.04394531
-0.07324219
-0.25488281
-0.12011719
0.0234375
0.00878906
-0.01464844
-0.01171875
-0.0234375
-0.02050781
-0.02929688
-0.02636719
-0.046875
-0.03515625
-0.03515625
-0.04101562
-0.04980469
-0.046875
-0.07324219
-0.06738281
-0.07617188
-0.08496094
-0.09375
-0.09960938
-0.08203125
-0.06152344
-0.05859375
-0.03515625
-0.0234375
-0.00292969
0.0
0.00292969
-0.00292969
-0.00292969
0.00878906
-0.01171875
-0.01171875
-0.02050781
-0.02050781
-0.02636719
-0.02929688
-0.0234375
-0.02929688
-0.03808594
-0.02636719
-0.02929688
-0.02050781
-0.02050781
-0.0234375
-0.0234375
-0.03515625
-0.02636719
-0.0234375
-0.0234375
-0.0234375
-0.02636719
-0.03515625
-0.02929688
-0.03515625
-0.01464844
-0.03222656
-0.05859375
-0.03515625
-0.0234375
-0.01464844
-0.03222656
-0.02050781
-0.01757812
-0.02050781
-0.01464844
-0.02050781
-0.16699219
-0.17871094
0.02636719
0.03222656
-0.00878906
-0.03808594
-0.03222656
-0.03515625
-0.02929688
-0.03808594
-0.04394531
-0.04394531
-0.05273438
-0.04980469
-0.05566406
-0.04980469
-0.06445312
-0.06738281
-0.07324219
-0.09667969
-0.10253906
-0.09082031
-0.07617188
-0.07617188
-0.05859375
-0.04101562
-0.0234375
-0.00585937
0.01171875
0.01171875
0.00878906
0.00585937
0.01464844
-0.00878906
-0.00585937
-0.01464844
-0.0234375
-0.03222656
-0.01464844
-0.0234375
-0.03222656
-0.03808594
-0.02929688
-0.0234375
-0.03222656
-0.0234375
-0.02929688
-0.02636719
-0.0234375
-0.0234375
-0.03515625
-0.01757812
-0.02050781
-0.03222656
-0.02636719
-0.02929688
-0.03808594
-0.02636719
-0.05273438
-0.03808594
-0.03808594
-0.02929688
-0.03808594
-0.02636719
-0.03515625
-0.04101562
-0.04394531
-0.02050781
-0.09082031
-0.234375
-0.03515625
0.04394531
0.0
-0.04101562
-0.03515625
-0.03808594
-0.04101562
-0.04394531
-0.05273438
-0.046875
-0.05566406
-0.05273438
-0.05859375
-0.05859375
-0.06445312
-0.06738281
-0.08496094
-0.08203125
-0.09375
-0.09667969
-0.09375
-0.08203125
-0.05859375
-0.03222656
-0.01464844
-0.01171875
0.0
0.00292969
0.02050781
0.00292969
0.00292969
0.0
-0.00292969
-0.01171875
-0.02929688
-0.0234375
-0.02929688
-0.02636719
-0.04394531
-0.02929688
-0.03808594
-0.03222656
-0.0234375
-0.03222656
-0.00585937
-0.0234375
-0.02636719
-0.02929688
-0.02929688
-0.04394531
-0.0234375
-0.0234375
-0.02929688
-0.02929688
-0.03222656
-0.03222656
-0.03222656
-0.04101562
-0.04394531
-0.04394531
-0.05273438
-0.06152344
-0.05859375
-0.02929688
-0.03222656
-0.03222656
-0.0234375
-0.03515625
-0.04394531
-0.04101562
-0.05566406
-0.2578125
-0.16699219
0.01464844
0.00878906
-0.01464844
-0.00292969
-0.02636719
-0.02050781
-0.03808594
-0.03515625
-0.02050781
-0.03222656
-0.04394531
-0.02636719
-0.04394531
-0.06152344
-0.06445312
-0.08203125
-0.09960938
-0.08203125
-0.07617188
-0.06152344
-0.07617188
-0.08789062
-0.04980469
-0.00878906
-0.00878906
-0.00878906
-0.0234375
0.00878906
-0.00878906
-0.01171875
0.04980469
0.03515625
0.00292969
-0.02050781
-0.01171875
-0.03515625
-0.03808594
-0.00878906
0.0
0.00292969
-0.046875
-0.046875
0.02050781
-0.01171875
-0.03808594
-0.02636719
-0.0234375
-0.046875
-0.05273438
0.02636719
-0.02929688
-0.0703125
-0.01171875
-0.05859375
0.03808594
-0.01171875
-0.01464844
-0.10839844
0.0
-0.01171875
-0.04394531
-0.01464844
-0.02636719
-0.046875
-0.10839844
-0.01464844
-0.03222656
-0.03222656
-0.05273438
-0.08203125
-0.02636719
-0.07910156
0.01171875
-0.02636719
-0.07324219
-0.27832031
-0.046875
0.01757812
0.0
-0.02636719
-0.04101562
-0.0234375
-0.03808594
-0.04980469
-0.03515625
-0.046875
-0.05273438
-0.06152344
-0.046875
-0.04394531
-0.06445312
-0.07910156
-0.09082031
-0.08496094
-0.09667969
-0.10839844
-0.09082031
-0.08496094
-0.07324219
-0.05273438
-0.03808594
-0.01757812
-0.0234375
0.01171875
0.00585937
0.00585937
-0.00292969
0.00292969
-0.00292969
-0.01171875
-0.02929688
-0.03808594
-0.01757812
-0.02636719
-0.01757812
-0.0234375
-0.02050781
-0.02929688
-0.02636719
-0.03515625
-0.03515625
-0.03515625
-0.04101562
-0.0234375
-0.03222656
-0.03515625
-0.03808594
-0.0234375
-0.03515625
-0.03222656
-0.03222656
-0.03515625
-0.04101562
-0.02929688
-0.02929688
-0.04101562
-0.03808594
-0.04394531
-0.04394531
-0.04394531
-0.05859375
-0.046875
-0.03808594
-0.03515625
-0.0234375
-0.04101562
-0.01464844
-0.03515625
-0.02929688
-0.00878906
-0.1640625
-0.16113281
0.04394531
0.03222656
-0.00878906
-0.03222656
-0.03808594
-0.03222656
-0.03515625
-0.03515625
-0.04394531
-0.046875
-0.03222656
-0.04394531
-0.03515625
-0.05566406
-0.06152344
-0.06152344
-0.07324219
-0.08203125
-0.08789062
-0.06738281
-0.06445312
-0.05566406
-0.05273438
-0.02636719
-0.00585937
0.01464844
0.0234375
0.03808594
0.01757812
0.046875
0.02929688
0.00292969
0.00585937
0.00585937
-0.00878906
-0.01464844
-0.01757812
-0.02636719
-0.02050781
-0.04394531
-0.03515625
-0.03515625
-0.02636719
-0.03515625
-0.02636719
-0.03515625
-0.03808594
-0.02929688
-0.03222656
-0.02636719
-0.02636719
-0.03808594
-0.03808594
-0.02636719
-0.03808594
-0.04394531
-0.02929688
-0.03808594
-0.04980469
-0.04101562
-0.04980469
-0.04101562
-0.03808594
-0.02636719
-0.04394531
-0.03222656
-0.03808594
-0.04101562
-0.05273438
-0.01171875
-0.234375
-0.22265625
0.02636719
-0.03222656
0.02050781
0.08496094
0.03222656
-0.01171875
-0.03808594
-0.02929688
-0.01464844
-0.01757812
-0.06445312
-0.03808594
-0.08203125
-0.1171875
-0.07910156
-0.046875
-0.05859375
-0.07617188
-0.09960938
-0.10546875
-0.09960938
-0.07910156
-0.05273438
-0.04101562
-0.03515625
-0.02050781
-0.01464844
0.0
-0.00878906
0.00878906
-0.00585937
-0.00292969
-0.01464844
-0.01464844
-0.01464844
-0.02050781
-0.03515625
-0.03222656
-0.02929688
-0.03515625
-0.03808594
-0.02636719
-0.04394531
-0.02050781
-0.02050781
-0.03222656
-0.04394531
0.00292969
-0.02050781
-0.01757812
-0.01464844
-0.03222656
-0.04394531
-0.04394531
-0.01464844
-0.0234375
-0.06152344
-0.04101562
-0.03515625
-0.01757812
-0.03515625
-0.02050781
-0.02050781
-0.02050781
-0.03808594
-0.02929688
-0.09667969
-0.26367188
-0.03222656
0.03222656
0.02050781
-0.02636719
-0.01757812
-0.01757812
-0.03222656
-0.0234375
-0.0234375
-0.03515625
-0.04394531
-0.04394531
-0.03222656
-0.05566406
-0.04101562
-0.046875
-0.0703125
-0.08203125
-0.07910156
-0.08203125
-0.08789062
-0.07910156
-0.05566406
-0.04101562
-0.0234375
-0.01757812
0.01171875
0.02636719
0.00292969
0.03515625
0.03515625
0.00878906
0.00878906
-0.01464844
-0.03808594
-0.140625
-0.00585937
0.08496094
0.04101562
0.00878906
-0.06738281
-0.07617188
-0.17871094
0.09667969
0.10253906
0.05273438
-0.02050781
-0.00585937
-0.0234375
-0.02929688
-0.02636719
-0.04394531
-0.05859375
-0.05859375
-0.05566406
-0.06445312
-0.01171875
-0.07910156
0.01171875
-0.02050781
-0.0234375
-0.05859375
-0.10546875
-0.28417969
-0.12890625
0.03808594
0.03808594
-0.02050781
-0.03222656
-0.04101562
-0.07324219
-0.04980469
-0.04980469
-0.0234375
-0.01757812
-0.03808594
-0.06152344
-0.0703125
-0.07324219
-0.09082031
-0.11132812
-0.09375
-0.13476562
-0.12011719
-0.10546875
-0.11425781
-0.04394531
-0.03808594
-0.04394531
-0.03222656
-0.0234375
-0.01757812
-0.01464844
-0.01464844
-0.0234375
0.03515625
0.01171875
-0.00585937
-0.03222656
-0.03515625
-0.04394531
-0.07617188
-0.01171875
-0.01464844
-0.04980469
-0.03515625
-0.04394531
-0.046875
-0.02636719
-0.03808594
-0.01171875
-0.0234375
-0.03808594
-0.03222656
-0.04980469
-0.07617188
-0.046875
-0.02636719
-0.03808594
-0.04101562
-0.0234375
-0.02636719
-0.03515625
-0.04980469
-0.02636719
-0.09960938
-0.28417969
-0.09082031
0.04394531
0.01171875
-0.03515625
-0.03515625
-0.00585937
-0.0234375
-0.03808594
-0.03515625
-0.03808594
-0.05859375
-0.04980469
-0.04394531
-0.07617188
-0.06738281
-0.0703125
-0.07324219
-0.09960938
-0.09375
-0.08496094
-0.09082031
-0.09375
-0.05566406
-0.04980469
-0.04101562
0.0
0.01171875
0.01464844
0.0
0.00878906
0.0
-0.00292969
-0.02636719
-0.02050781
0.0
-0.01757812
-0.02929688
-0.02050781
-0.0234375
-0.03808594
-0.01757812
-0.0234375
-0.03222656
-0.0234375
-0.00878906
-0.01464844
-0.01757812
-0.02929688
-0.03808594
-0.04101562
-0.03222656
-0.02636719
-0.03808594
-0.02050781
-0.01171875
-0.03222656
-0.02636719
-0.02636719
-0.03808594
-0.00878906
-0.1171875
-0.17871094
0.02050781
0.05273438
-0.02636719
-0.04101562
-0.05566406
-0.04980469
-0.03515625
-0.04394531
-0.03808594
-0.05566406
-0.05566406
-0.06152344
-0.0703125
-0.05566406
-0.04980469
-0.09960938
-0.06445312
-0.10839844
-0.18457031
-0.09667969
-0.21972656
0.0
0.02050781
0.10253906
0.04980469
0.05859375
0.06738281
-0.02050781
0.03515625
0.08203125
0.02636719
0.02636719
0.02050781
-0.00878906
-0.00878906
-0.01171875
-0.05273438
-0.00585937
0.01464844
-0.01171875
-0.03515625
-0.01171875
-0.01171875
-0.02050781
-0.03515625
-0.01171875
-0.02636719
-0.07617188
-0.15234375
-0.14355469
0.01171875
0.03808594
0.19042969
0.10253906
0.02929688
-0.00292969
-0.03808594
-0.03515625
-0.05566406
-0.19042969
-0.20800781
-0.00292969
0.06738281
0.02636719
-0.03222656
-0.0234375
-0.03515625
-0.04980469
-0.06152344
-0.02636719
-0.08496094
-0.13183594
-0.11132812
0.05566406
-0.07324219
-0.046875
-0.0234375
-0.17578125
-0.16699219
0.04980469
-0.08496094
0.0
-0.04980469
-0.05859375
-0.07910156
0.05566406
-0.01757812
-0.04980469
0.07910156
0.046875
0.0234375
-0.07324219
0.03515625
0.04394531
-0.02636719
-0.02929688
-0.05273438
-0.06445312
-0.02636719
-0.10253906
-0.046875
-0.02929688
0.08203125
0.11132812
0.00585937
-0.02636719
-0.03515625
-0.04980469
-0.08789062
-0.02050781
-0.05273438
-0.07324219
-0.09082031
-0.02929688
-0.00292969
-0.0234375
-0.02636719
-0.06445312
-0.12304688
-0.05566406
-0.02929688
-0.1875
-0.19628906
0.03515625
0.04394531
-0.00292969
-0.03515625
-0.00585937
-0.03222656
-0.03515625
-0.06152344
-0.00292969
-0.09667969
0.00585937
-0.13183594
-0.06445312
0.0703125
0.01757812
-0.03808594
-0.08203125
-0.08789062
-0.14941406
-0.12304688
-0.05273438
-0.09960938
0.02050781
-0.00585937
-0.03515625
0.0
-0.03808594
-0.0234375
-0.01171875
0.05273438
0.03808594
0.00585937
-0.00878906
-0.0234375
-0.03222656
-0.0234375
-0.08789062
-0.03808594
-0.00878906
-0.04101562
-0.01171875
-0.03808594
-0.00878906
-0.0234375
-0.02636719
-0.046875
-0.03808594
-0.01464844
-0.03222656
-0.03222656
-0.03808594
-0.03515625
-0.046875
-0.07324219
-0.03515625
-0.00292969
-0.01171875
-0.00585937
-0.0234375
-0.03222656
-0.02636719
-0.08203125
-0.3046875
-0.140625
0.03222656
0.01171875
0.00878906
-0.00292969
-0.01464844
-0.02050781
-0.01464844
-0.02929688
-0.02636719
-0.03808594
-0.04394531
-0.04980469
-0.07324219
-0.05859375
-0.04394531
-0.06445312
-0.07617188
-0.09375
-0.07617188
-0.08203125
-0.07910156
-0.07910156
-0.03515625
-0.02929688
-0.01464844
-0.00878906
-0.00878906
-0.00878906
-0.01464844
-0.00292969
-0.00585937
-0.01757812
-0.02636719
-0.0234375
-0.03515625
-0.02929688
-0.046875
-0.0234375
-0.0234375
-0.02929688
-0.03222656
-0.02636719
-0.02929688
-0.02636719
-0.02636719
-0.02929688
-0.01757812
-0.0234375
-0.03808594
-0.03515625
-0.0234375
-0.046875
-0.03222656
-0.05566406
-0.046875
-0.03515625
-0.00585937
-0.02636719
-0.02929688
-0.01757812
-0.0234375
-0.02636719
0.0
-0.11425781
-0.28125
-0.03808594
0.03222656
-0.00292969
0.0
-0.04101562
-0.00585937
-0.02050781
-0.05859375
-0.046875
-0.02636719
-0.03808594
-0.046875
-0.05859375
-0.06738281
-0.06152344
-0.07324219
-0.08496094
-0.12011719
-0.07324219
-0.08203125
-0.08789062
-0.07617188
-0.05859375
-0.046875
-0.0234375
0.02636719
0.02050781
0.0234375
0.0
0.02636719
0.00585937
0.0
0.0
-0.02636719
-0.00292969
-0.00585937
-0.02636719
0.0
-0.02050781
-0.01464844
-0.04101562
-0.03515625
0.00878906
0.00878906
-0.02929688
-0.01171875
-0.04101562
-0.03222656
-0.01171875
-0.02929688
-0.03515625
0.01171875
-0.03515625
-0.04101562
-0.01757812
-0.01171875
-0.02050781
-0.02636719
-0.02050781
-0.00585937
-0.0234375
-0.03222656
-0.01171875
-0.19042969
-0.20800781
0.02636719
0.03222656
0.01464844
0.00292969
-0.02636719
-0.03515625
-0.06738281
-0.06445312
0.01757812
-0.03808594
-0.02050781
-0.03515625
-0.046875
-0.07910156
-0.09082031
-0.09375
-0.05859375
-0.07617188
-0.10839844
-0.12890625
-0.03808594
-0.04980469
-0.046875
-0.0234375
-0.0234375
-0.01171875
-0.00585937
0.0
0.00292969
-0.00878906
0.0
-0.02050781
-0.02050781
-0.01757812
-0.01171875
-0.02050781
-0.00585937
-0.0234375
-0.03222656
-0.02050781
-0.03808594
-0.04394531
-0.01464844
-0.03515625
-0.01464844
-0.02929688
-0.02636719
-0.03222656
-0.03808594
-0.03222656
-0.03222656
-0.05566406
-0.03808594
-0.0234375
-0.02050781
-0.03515625
-0.04394531
-0.06152344
-0.06152344
-0.08203125
0.00585937
-0.02929688
-0.02636719
-0.04101562
-0.02929688
-0.03808594
-0.05566406
-0.2109375
-0.31933594
-0.00292969
0.04394531
0.00878906
-0.01171875
-0.00585937
-0.01464844
-0.02636719
-0.03808594
-0.01757812
-0.02636719
-0.04101562
-0.046875
-0.06445312
-0.04980469
-0.06445312
-0.06445312
-0.07910156
-0.07324219
-0.08203125
-0.10253906
-0.08203125
-0.07324219
-0.06738281
-0.04980469
-0.02929688
0.00292969
0.0
0.02050781
0.0
0.01171875
0.0
-0.00878906
-0.01757812
-0.02929688
-0.0234375
-0.03808594
-0.02929688
-0.04101562
-0.04980469
-0.03808594
-0.0234375
-0.03515625
-0.04101562
-0.00878906
-0.02929688
-0.04980469
-0.01171875
-0.0234375
-0.02929688
-0.05859375
0.00292969
-0.00292969
-0.00878906
-0.02636719
-0.03808594
-0.0234375
-0.01757812
-0.02636719
-0.05859375
-0.04980469
-0.04101562
-0.03222656
-0.01757812
-0.04101562
-0.03222656
0.00292969
-0.02929688
-0.01171875
-0.07617188
-0.29003906
-0.12890625
0.03808594
-0.00585937
0.00585937
0.0
-0.00292969
-0.02050781
-0.0234375
-0.02929688
-0.03515625
-0.04101562
-0.04980469
-0.05566406
-0.04394531
-0.06738281
-0.0703125
-0.07324219
-0.07324219
-0.08496094
-0.10839844
-0.09375
-0.08203125
-0.0703125
-0.06152344
-0.03808594
-0.01171875
-0.00292969
0.01464844
-0.00292969
0.02929688
-0.00585937
0.01757812
0.00292969
-0.00292969
-0.01757812
-0.0234375
-0.02050781
-0.0234375
-0.0234375
-0.0234375
-0.04101562
-0.01464844
-0.0234375
-0.0234375
-0.02050781
-0.0234375
-0.0234375
-0.0234375
-0.02050781
-0.02636719
-0.03222656
-0.02929688
-0.03515625
-0.02636719
-0.02636719
-0.02929688
-0.03808594
-0.046875
-0.05273438
-0.04980469
-0.05273438
-0.06152344
-0.046875
-0.03222656
-0.02929688
-0.02929688
-0.046875
-0.0234375
-0.02636719
-0.02636719
-0.01757812
-0.19042969
-0.15527344
0.05859375
0.03222656
-0.0234375
-0.03808594
-0.03515625
-0.04101562
-0.04101562
-0.05273438
-0.05273438
-0.04980469
-0.06152344
-0.046875
-0.05859375
-0.05859375
-0.08203125
-0.08496094
-0.07617188
-0.09667969
-0.10546875
-0.09375
-0.10546875
-0.06445312
-0.05859375
-0.02929688
-0.01171875
-0.02050781
0.0234375
0.02050781
0.04980469
0.02050781
0.00878906
-0.01464844
0.00292969
-0.0234375
-0.0234375
-0.01171875
-0.01757812
-0.02929688
-0.02050781
-0.0234375
-0.0234375
-0.02929688
-0.03222656
-0.02929688
-0.02636719
-0.03808594
-0.03515625
-0.02929688
-0.03515625
-0.04101562
-0.046875
-0.02050781
-0.04101562
-0.01171875
-0.02929688
-0.04101562
-0.04101562
-0.03515625
-0.03515625
-0.04101562
-0.03808594
-0.03808594
-0.05566406
-0.07324219
-0.046875
-0.02929688
-0.0234375
-0.0234375
-0.02929688
-0.02929688
-0.03808594
-0.04101562
-0.05566406
-0.24902344
-0.17871094
0.00292969
0.02636719
0.00878906
-0.0234375
-0.0234375
-0.02636719
-0.02050781
-0.03515625
-0.03515625
-0.03515625
-0.046875
-0.046875
-0.046875
-0.046875
-0.06445312
-0.07324219
-0.08496094
-0.07910156
-0.08789062
-0.08496094
-0.08496094
-0.06152344
-0.03808594
-0.02050781
-0.02050781
-0.01171875
0.00585937
0.01757812
0.02050781
0.00585937
0.00292969
0.01171875
-0.01464844
-0.01757812
-0.00585937
-0.02050781
-0.01757812
-0.02636719
-0.03222656
-0.02929688
-0.03808594
-0.01464844
-0.0234375
-0.0234375
-0.03222656
-0.0234375
-0.03808594
-0.02929688
-0.02050781
-0.02636719
-0.03515625
-0.0234375
-0.0234375
-0.04394531
-0.04394531
-0.03808594
-0.0234375
-0.02050781
-0.02636719
-0.04101562
-0.03808594
-0.04394531
-0.05859375
-0.05859375
-0.046875
-0.04394531
-0.02929688
-0.01757812
-0.04101562
-0.02929688
-0.04394531
-0.046875
-0.06152344
-0.25488281
-0.1875
0.00878906
0.01757812
0.00292969
-0.01757812
-0.0234375
-0.02929688
-0.02636719
-0.046875
-0.03515625
-0.04394531
-0.04101562
-0.05273438
-0.04101562
-0.06445312
-0.0703125
-0.05859375
-0.07617188
-0.08496094
-0.10546875
-0.09375
-0.08789062
-0.08789062
-0.06738281
-0.03515625
-0.00292969
-0.00878906
-0.01464844
0.00878906
0.00878906
0.01464844
-0.00585937
-0.01464844
-0.01757812
-0.00878906
-0.02636719
-0.03808594
-0.02636719
-0.04394531
-0.03808594
-0.03515625
-0.03515625
-0.03515625
-0.01171875
-0.03222656
-0.01464844
-0.03808594
-0.02636719
-0.02636719
-0.01171875
-0.03222656
-0.0234375
-0.02929688
-0.0234375
-0.03808594
-0.03808594
-0.02929688
-0.03515625
-0.03808594
-0.03222656
-0.02929688
-0.02929688
-0.03808594
-0.04101562
-0.04980469
-0.05859375
-0.05566406
-0.05273438
-0.04980469
-0.04394531
-0.02050781
-0.0234375
-0.02929688
-0.03515625
-0.046875
-0.03515625
-0.0234375
-0.19042969
-0.18164062
0.03808594
0.0234375
-0.01171875
-0.03222656
-0.04101562
-0.04394531
-0.046875
-0.03808594
-0.03515625
-0.05566406
-0.04394531
-0.046875
-0.046875
-0.06152344
-0.07617188
-0.0703125
-0.08203125
-0.09667969
-0.10546875
-0.10839844
-0.08496094
-0.08203125
-0.05859375
-0.046875
0.0
0.0
0.01757812
0.01171875
0.02636719
0.01757812
0.01757812
0.00878906
0.01757812
0.00292969
0.0
-0.00878906
-0.01757812
-0.01757812
-0.03515625
-0.01464844
-0.0234375
-0.02636719
-0.0234375
-0.02050781
-0.0234375
-0.01757812
-0.01757812
-0.0234375
-0.02929688
-0.01171875
-0.02636719
-0.02929688
-0.01757812
-0.0234375
-0.02050781
-0.01757812
-0.02636719
-0.03222656
-0.02636719
-0.03808594
-0.05566406
-0.04101562
-0.02929688
-0.02929688
-0.02050781
-0.01757812
-0.01757812
-0.0234375
-0.03515625
-0.00878906
-0.11132812
-0.23144531
-0.00878906
0.046875
-0.00585937
-0.02929688
-0.01757812
-0.02636719
-0.04980469
-0.03808594
-0.04101562
-0.03515625
-0.04980469
-0.046875
-0.04101562
-0.05859375
-0.06445312
-0.07617188
-0.08203125
-0.09082031
-0.11425781
-0.10253906
-0.08496094
-0.07324219
-0.06445312
-0.05273438
-0.01464844
-0.01464844
0.00292969
0.01171875
0.00292969
0.02050781
0.0234375
0.00878906
0.0
-0.01464844
-0.01171875
-0.01464844
-0.02050781
-0.01464844
-0.02636719
-0.01464844
-0.02050781
-0.01171875
-0.0234375
-0.02636719
-0.0234375
-0.03515625
-0.01171875
-0.02636719
-0.0234375
-0.04394531
-0.02050781
-0.02050781
-0.03222656
-0.02636719
-0.0234375
-0.03222656
-0.03222656
-0.03515625
-0.046875
-0.04394531
-0.04101562
-0.03808594
-0.05273438
-0.04101562
-0.04394531
-0.0234375
-0.02929688
-0.02636719
-0.02929688
-0.0234375
-0.02050781
-0.04101562
-0.21679688
-0.2578125
-0.01171875
0.03515625
-0.00878906
-0.00585937
-0.00878906
-0.00585937
-0.0234375
-0.03515625
-0.02636719
-0.03222656
-0.02636719
-0.03515625
-0.046875
-0.05566406
-0.06152344
-0.04980469
-0.06445312
-0.08789062
-0.09960938
-0.10546875
-0.10253906
-0.08496094
-0.06445312
-0.04394531
-0.02929688
-0.01464844
-0.00292969
0.0234375
0.02050781
0.00878906
0.00292969
-0.01171875
-0.00292969
-0.00292969
-0.0234375
-0.01757812
-0.0234375
-0.01464844
-0.0234375
-0.02929688
-0.03515625
-0.03222656
-0.03808594
-0.0234375
-0.03222656
-0.04394531
-0.02929688
-0.02929688
-0.03515625
-0.03808594
-0.02636719
-0.02929688
-0.02636719
-0.02929688
-0.03808594
-0.04101562
-0.03222656
-0.03222656
-0.046875
-0.04101562
-0.04101562
-0.05566406
-0.06152344
-0.06738281
-0.03808594
-0.00585937
-0.03222656
-0.02636719
-0.04394531
-0.03808594
-0.046875
-0.0234375
-0.11425781
-0.29589844
-0.07324219
0.03515625
0.01757812
-0.02636719
-0.02636719
-0.01757812
-0.02636719
-0.03808594
-0.03808594
-0.03515625
-0.046875
-0.06152344
-0.046875
-0.06152344
-0.06738281
-0.07324219
-0.08203125
-0.09375
-0.10253906
-0.11425781
-0.11425781
-0.09082031
-0.08496094
-0.05859375
-0.0234375
-0.0234375
-0.00292969
0.0
0.01464844
0.01757812
0.01171875
0.00585937
-0.00585937
-0.00292969
-0.00585937
-0.01757812
-0.01464844
-0.02636719
-0.02050781
-0.0234375
-0.02050781
-0.03222656
-0.02050781
-0.02636719
-0.02929688
-0.01757812
-0.01171875
-0.02929688
-0.01171875
-0.01757812
-0.0234375
-0.03222656
-0.02636719
-0.03515625
-0.02929688
-0.0234375
-0.04101562
-0.03222656
-0.03808594
-0.04980469
-0.04394531
-0.03222656
-0.05566406
-0.04394531
-0.04394531
-0.03222656
-0.03222656
-0.03222656
-0.03222656
-0.02636719
-0.03808594
-0.00878906
-0.04394531
-0.23144531
-0.07910156
0.05566406
0.01464844
-0.03808594
-0.03515625
-0.03808594
-0.04394531
-0.05566406
-0.046875
-0.04980469
-0.05273438
-0.05273438
-0.046875
-0.06152344
-0.06152344
-0.0703125
-0.07324219
-0.09667969
-0.10546875
-0.10546875
-0.10546875
-0.09082031
-0.08203125
-0.04980469
-0.02636719
-0.00292969
0.02050781
0.0234375
0.03222656
0.03222656
0.03808594
0.03515625
0.02050781
0.00292969
0.00585937
-0.00292969
0.0
-0.01171875
-0.02050781
-0.01464844
-0.01464844
-0.02636719
-0.02050781
-0.02050781
-0.01171875
-0.02050781
-0.01171875
-0.01464844
-0.01171875
-0.02636719
-0.01757812
-0.02050781
-0.0234375
-0.02050781
-0.02636719
-0.03222656
-0.02929688
-0.0234375
-0.02636719
-0.05273438
-0.04394531
-0.02636719
-0.03222656
-0.02050781
-0.02929688
-0.03808594
-0.0234375
-0.02636719
-0.01171875
-0.03808594
-0.20800781
-0.19628906
0.04101562
0.03515625
-0.02050781
-0.02050781
-0.00878906
-0.03515625
-0.03808594
-0.04980469
-0.04394531
-0.046875
-0.03808594
-0.04980469
-0.046875
-0.04980469
-0.06152344
-0.07617188
-0.08496094
-0.08789062
-0.09375
-0.10546875
-0.09375
-0.07617188
-0.05859375
-0.04394531
-0.02636719
-0.00585937
0.00292969
0.00878906
0.00585937
0.00585937
0.01171875
0.00292969
-0.00585937
-0.01171875
-0.01757812
-0.0234375
-0.02050781
-0.02929688
-0.02050781
-0.0234375
-0.03515625
-0.03515625
-0.0234375
-0.02636719
-0.03222656
-0.02636719
-0.02636719
-0.01464844
-0.03222656
-0.03222656
-0.03222656
-0.03222656
-0.02929688
-0.03808594
-0.02929688
-0.02929688
-0.03515625
-0.04101562
-0.03515625
-0.03515625
-0.04980469
-0.06152344
-0.04980469
-0.03808594
-0.03515625
-0.0234375
-0.02636719
-0.0234375
-0.02929688
-0.046875
-0.03222656
-0.15527344
-0.32519531
-0.06738281
0.03515625
0.02050781
-0.01464844
-0.01171875
-0.01757812
-0.03222656
-0.02929688
-0.04394531
-0.06445312
-0.03222656
-0.02636719
-0.05273438
-0.04980469
-0.05859375
-0.0703125
-0.07324219
-0.09375
-0.10546875
-0.09082031
-0.08496094
-0.07910156
-0.06738281
-0.05566406
