1.21875
1.48242188
0.12597656
0.50390625
-0.72363281
0.03515625
-0.99609375
0.27832031
-0.19042969
1.11914062
0.38378906
1.32714844
0.4453125
1.08984375
-0.1875
0.7265625
-0.31933594
0.69140625
-0.20800781
0.79980469
-0.15234375
0.88476562
-0.45117187
0.11425781
-1.1484375
-0.49804688
-1.5
-0.8203125
-1.5
-0.73535156
-1.27148437
0.38378906
-0.09082031
1.0546875
0.25488281
1.01953125
-0.09082031
0.53027344
-0.62988281
0.2578125
-0.87304688
0.06445312
-0.65625
0.50390625
-0.78808594
0.33691406
-1.19824219
-0.73535156
-1.5
-0.44824219
-1.40039062
-0.3046875
-1.12792969
0.12304688
-0.06445312
1.14257812
-0.95507812
-1.5
-1.5
0.83789062
1.48242188
1.48242188
-0.00585937
0.23144531
-0.86425781
0.45410156
-0.32226562
0.50683594
-0.86132812
-0.48339844
-1.5
-1.10449219
-1.5
-0.24902344
-0.9609375
0.02050781
-1.18066406
-0.31640625
-1.5
-0.61523438
-1.5
-1.14550781
-1.5
-1.5
-1.5
-1.5
-1.5
-1.02246094
-0.5625
1.48242188
1.48242188
1.48242188
1.48242188
1.48242188
1.48242188
1.48242188
1.48242188
1.48242188
1.48242188
1.48242188
1.04882812
1.48242188
0.33691406
1.15429688
-0.09960938
0.97851562
-0.17871094
0.75
-0.55078125
0.62402344
-0.55371094
0.61816406
-0.54199219
0.4453125
-0.89355469
0.30761719
-0.93457031
0.42773437
-0.55078125
0.78515625
-0.02929688
1.01953125
-0.41894531
0.515625
-0.87890625
0.32226562
-0.84960938
0.21679688
-0.93457031
0.24316406
-0.75585938
0.3046875
-0.93457031
0.27832031
-0.71484375
0.46289062
-0.65332031
0.29882812
-0.94628906
0.12011719
-0.84375
0.50097656
-0.34570312
0.93164062
-0.28417969
0.69433594
-0.4921875
0.00585937
-1.18359375
-0.48339844
-1.41796875
-0.52148438
-1.078125
0.62988281
-0.36621094
0.6328125
-0.48925781
0.51855469
-0.64453125
0.32226562
-1.5
-1.5
-1.5
1.48242188
1.48242188
1.48242188
0.46582031
0.82910156
-0.43359375
0.328125
-0.99609375
-0.18457031
-1.265625
-0.41894531
-1.28027344
-0.38964844
-1.28613281
-0.42773437
-1.30957031
-0.47167969
-1.41796875
-0.58300781
-1.5
-0.890625
-1.5
-1.5
-1.5
-1.5
-1.5
-1.5
-1.5
0.26074219
0.44824219
1.48242188
1.48242188
1.48242188
1.48242188
1.48242188
1.48242188
1.48242188
1.078125
1.48242188
0.68554688
1.48242188
0.41015625
1.125
0.02636719
0.99902344
-0.13183594
0.84082031
-0.22265625
1.04003906
0.19921875
1.2890625
0.22265625
1.11328125
-0.328125
0.49511719
-0.76171875
0.29589844
-0.94628906
0.31347656
-0.88476562
0.20800781
-0.94921875
0.26367188
-0.83203125
0.21386719
-0.890625
0.24902344
-0.66796875
0.28710938
-0.83496094
0.3515625
-0.68261719
0.76464844
-0.31347656
1.08398438
-0.12011719
0.69140625
-0.64746094
0.21386719
-0.88476562
0.19335937
-0.84375
0.15820312
-0.77050781
0.27539062
-0.82617187
0.15234375
-0.796875
0.26953125
-0.66796875
0.34570312
-0.73828125
0.34570312
-0.6328125
0.45996094
-0.50683594
0.328125
-0.60644531
0.59472656
-0.84375
0.19921875
-0.99023437
-0.13769531
-0.92871094
0.61816406
0.19042969
1.03417969
0.05566406
0.77636719
-0.02929688
0.75878906
-0.15527344
-1.5
-1.5
-1.5
1.48242188
1.48242188
0.76757812
0.37207031
-1.36230469
-0.40722656
-1.16894531
-0.08789062
-0.76464844
0.33691406
-0.48339844
0.69726562
-0.22558594
0.65625
-0.1171875
0.66503906
-0.38085938
0.20507812
-0.94042969
-0.29296875
-1.36816406
-0.85546875
-1.5
-1.5
-1.5
-1.5
-1.5
-1.5
-1.5
0.07617188
0.74414062
1.48242188
1.48242188
1.48242188
1.48242188
1.48242188
1.48242188
1.48242188
1.48242188
1.48242188
1.21582031
1.48242188
0.84082031
1.3125
0.375
0.97265625
-0.16699219
0.22265625
-1.04003906
-0.46582031
-1.49121094
-0.75585938
-1.3359375
-0.28417969
-0.78515625
0.31054687
-0.00585937
1.02539062
0.2578125
1.07226562
0.06445312
0.8203125
-0.35742188
0.34277344
-0.38671875
0.56835938
-0.24316406
0.60351562
-0.22851562
0.36914062
-0.7265625
-0.046875
-1.06640625
-0.47460938
-1.37402344
-0.55957031
-1.33007812
-0.16699219
-0.73535156
0.31347656
-0.13769531
0.82324219
-0.28125
0.25195312
-0.90527344
-0.33398437
-1.47070312
-0.92871094
-1.5
-0.82910156
-1.42675781
-0.13476562
-0.3046875
0.703125
-0.12597656
0.64453125
-0.22851562
0.63867188
-0.17871094
-1.22460937
-1.5
-1.5
0.890625
1.48242188
1.48242188
0.55078125
-1.04589844
-0.48925781
-0.85253906
0.14355469
-0.84082031
0.19921875
-0.89355469
-0.00585937
-0.92285156
-0.12304688
-0.79394531
-0.08496094
-1.02246094
-0.16113281
-1.33300781
-0.62109375
-1.5
-1.26855469
-1.5
-1.5
-1.5
-1.5
-1.5
-1.5
-1.5
0.28710938
0.79394531
1.48242188
1.48242188
1.48242188
1.48242188
1.48242188
1.48242188
1.48242188
1.48242188
1.48242188
1.34179688
1.48242188
0.85546875
1.48242188
0.46875
1.42675781
0.05273438
1.12207031
-0.07617188
1.00488281
-0.27832031
0.81738281
-0.375
0.76757812
-0.46875
0.69140625
-0.33984375
0.8203125
-0.5390625
0.58007812
-0.42480469
0.67089844
-0.66210937
0.59472656
-0.60351562
0.55078125
-0.60644531
0.51855469
-0.70605469
0.47753906
-0.69140625
0.421875
-0.7265625
0.51269531
-0.796875
0.57714844
-0.64160156
0.59765625
-0.58886719
0.61523438
-0.64453125
0.51855469
-0.70898437
0.43652344
-0.84667969
0.43066406
-0.80273438
0.43945312
-0.97851562
0.06445312
-0.984375
0.20507812
-1.19824219
-0.00878906
-1.19824219
-0.35449219
-1.20703125
0.69433594
-0.03808594
0.93164062
-0.234375
0.82910156
-0.421875
0.54492187
-0.94335938
-1.5
-1.5
-1.5
1.48242188
1.48242188
0.42773437
0.51269531
-1.1015625
0.02636719
-1.09277344
0.06445312
-1.12792969
0.02929688
-1.04296875
-0.16992188
-1.08105469
-0.10253906
-1.01367188
-0.23144531
-1.17773438
-0.18164062
-1.33886719
-0.51269531
-1.5
-1.13964844
-1.5
-1.5
-1.5
-1.5
-1.5
-1.35644531
-1.18945312
1.20703125
1.27734375
1.48242188
1.48242188
1.48242188
1.48242188
1.48242188
1.48242188
1.48242188
1.1484375
1.48242188
0.72949219
1.27734375
0.08789062
0.94042969
-0.18457031
0.64160156
-0.1875
0.33984375
-0.99316406
-0.16113281
-0.84960938
-0.02050781
-1.5
0.21972656
-0.10546875
1.06640625
0.55078125
0.75585938
-0.10839844
0.66796875
0.15820312
1.48242188
1.48242188
1.48242188
0.46289062
1.47949219
0.80859375
1.45019531
0.33984375
0.76464844
-0.35742188
0.07617188
-0.08203125
-0.15527344
-0.70019531
0.14941406
-1.5
-1.5
-1.5
-0.90234375
-1.05175781
-0.09375
-0.95800781
-0.38964844
-1.49707031
-1.01660156
-1.5
-0.77929687
-1.5
-0.16699219
0.04980469
-0.06738281
-0.9375
0.12011719
-0.68847656
-0.50390625
-0.69433594
0.96679688
0.16992188
0.99902344
0.24023437
1.13964844
0.17578125
1.48242188
-1.5
-1.5
-1.5
1.48242188
1.48242188
1.48242188
0.0703125
0.34863281
-0.50097656
0.44824219
-0.34277344
0.3984375
-0.52734375
0.28125
-0.43066406
0.26660156
-0.61230469
0.08496094
-0.890625
-0.4453125
-1.5
-1.13085938
-1.5
-1.34765625
-1.5
-1.5
-1.5
-1.5
-1.5
-1.5
-1.5
-0.9609375
-0.10253906
1.48242188
1.48242188
1.48242188
1.48242188
1.48242188
1.48242188
1.48242188
1.33007812
1.48242188
0.98144531
1.48242188
0.56835938
1.48242188
0.9140625
1.48242188
0.53320312
1.18066406
0.31054687
0.96972656
0.08496094
1.0078125
0.53613281
1.453125
0.80859375
1.3828125
0.61230469
1.19824219
0.43945312
1.15722656
0.22558594
0.95800781
-0.08496094
0.48925781
-0.375
0.50683594
-0.30761719
0.20800781
-0.49804688
0.25488281
-0.50683594
0.24316406
-0.609375
-0.08203125
-1.11328125
-0.34570312
-1.28027344
-0.91699219
-1.35644531
-0.91699219
-1.5
-0.61816406
-0.80273438
0.19042969
-0.88769531
-0.234375
-1.11328125
-0.43066406
-1.26855469
-0.70605469
-1.5
-1.5
-1.5
1.48242188
1.48242188
1.48242188
-0.6328125
-0.37207031
-1.34765625
-0.28710938
-1.1484375
-0.44238281
-1.22753906
-0.36914062
-0.83789062
-0.02636719
-0.73535156
0.13769531
-0.55664062
0.02050781
-0.91113281
-0.47167969
-1.5
-1.28613281
-1.5
-1.5
-1.5
-1.5
-1.5
-1.5
-1.5
-0.00878906
0.62988281
1.48242188
1.48242188
1.48242188
1.48242188
1.48242188
1.48242188
1.48242188
1.48242188
1.48242188
1.33007812
1.48242188
0.8671875
1.41210938
0.51269531
1.06933594
0.22265625
0.75585938
0.13476562
0.60644531
-0.08496094
0.62109375
-0.12890625
0.49804688
-0.1640625
0.63867188
-0.04980469
0.59765625
-0.12011719
0.4453125
-0.29882812
0.44824219
-0.1875
0.26660156
-0.51269531
0.12890625
-0.57128906
-0.09082031
-0.76757812
0.01757812
-0.98730469
0.1171875
0.01757812
0.85839844
-0.07617188
0.47753906
-0.2578125
0.33105469
-0.33691406
-0.7265625
-1.5
-1.5
-1.01953125
1.48242188
1.48242188
0.9375
-0.59472656
-0.32519531
-0.83203125
-0.0234375
-0.75878906
-0.20800781
-0.84375
-0.14355469
-0.92871094
-0.15527344
-0.87597656
-0.12890625
-0.81152344
-0.14648438
-1.08984375
-0.64746094
-1.5
-1.13085938
-1.5
-1.5
-1.5
-1.5
-1.5
-1.5
-1.5
0.43066406
1.13085938
1.48242188
1.48242188
1.48242188
1.48242188
1.48242188
1.48242188
1.48242188
1.47070312
1.48242188
0.92285156
1.48242188
0.59472656
1.265625
0.19628906
0.5859375
-0.25195312
0.51269531
-0.28710938
0.29882812
-0.41894531
0.24609375
-0.46289062
0.15527344
-0.49804688
0.23144531
-0.37207031
0.22851562
-0.66210937
0.17871094
-0.53320312
0.27539062
-0.54492187
0.15234375
-0.33984375
0.15527344
-0.58886719
0.16113281
-0.55371094
-0.01464844
-0.9140625
-0.08496094
-0.85546875
-0.18457031
-1.34765625
-0.42773437
-1.37988281
-0.32519531
-0.09375
0.74121094
-0.04980469
0.61230469
-0.1875
0.46289062
-0.23730469
-1.5
-1.5
-1.5
1.48242188
1.48242188
1.48242188
0.92285156
-0.6328125
-0.18457031
-0.61816406
0.16699219
-0.75585938
-0.08496094
-0.66503906
0.11425781
-0.69433594
-0.07617188
-0.81152344
-0.09375
-0.96386719
-0.3046875
-1.11035156
-0.49804688
-1.5
-1.15722656
-1.5
-1.5
-1.5
-1.5
-1.5
-1.5
-1.34179688
0.78222656
1.38574219
1.48242188
1.48242188
1.48242188
1.48242188
1.48242188
1.48242188
1.48242188
1.21875
1.48242188
0.9609375
1.48242188
0.50976562
1.11328125
0.23144531
0.82617187
-0.09082031
0.68261719
-0.11132812
0.65625
-0.27832031
0.40429688
-0.50390625
0.32226562
-0.31347656
0.28417969
-0.45996094
0.14355469
-0.43066406
0.33691406
-0.46875
0.19628906
-0.36328125
0.19628906
-0.62109375
0.17285156
-0.53027344
0.12011719
-0.62109375
0.07617188
-0.48925781
0.00878906
-0.55664062
0.12304688
-0.56835938
0.15820312
-0.56835938
0.16992188
-0.47753906
0.234375
-0.4921875
0.234375
-0.39550781
0.31640625
-0.47460938
0.27832031
-0.43945312
0.3046875
-0.34863281
0.27832031
-0.51855469
0.22265625
-0.42773437
0.23144531
-0.48925781
0.16699219
-0.54492187
0.29003906
-0.4453125
0.20800781
-0.43359375
0.36621094
-0.4453125
0.20800781
-0.4921875
0.27246094
-0.38964844
0.31347656
-0.31054687
0.16113281
-0.37792969
0.32226562
-0.69433594
0.08496094
-0.46582031
0.0
-0.6328125
-0.10546875
-0.87597656
-0.18164062
-0.35449219
1.02832031
0.24609375
0.80566406
-0.00585937
0.6328125
-0.04980469
0.60644531
-1.5
-1.5
-1.5
1.48242188
1.48242188
1.48242188
0.38085938
0.26074219
-0.57421875
0.2578125
-0.46289062
0.22851562
-0.69726562
0.04101562
-0.61523438
0.05566406
-0.68261719
0.046875
-0.62988281
-0.00878906
-0.82910156
-0.28710938
-1.27734375
-0.75585938
-1.5
-1.3125
-1.5
-1.5
-1.5
-1.5
-1.5
-0.7265625
-0.49511719
1.29199219
1.48242188
1.48242188
1.48242188
1.48242188
1.48242188
1.48242188
1.48242188
1.48242188
1.23925781
1.48242188
0.75292969
1.13085938
0.37792969
0.93164062
0.12890625
0.71191406
-0.00878906
0.49511719
-0.14355469
0.47753906
-0.234375
0.375
-0.31640625
0.37792969
-0.25488281
0.3046875
-0.36914062
0.39257812
-0.41015625
0.29003906
-0.375
0.30175781
-0.4453125
0.31640625
-0.46289062
0.20214844
-0.48339844
0.24902344
-0.46289062
0.29882812
-0.4453125
0.15234375
-0.53027344
0.12597656
-0.48339844
0.27539062
-0.60644531
0.19921875
-0.59472656
0.05273438
-0.48339844
0.20800781
-0.65039062
0.11132812
-0.54199219
0.22558594
-0.40429688
0.08789062
-0.69726562
-0.05566406
-0.48046875
0.09960938
-0.60351562
0.27246094
-0.61816406
0.16699219
-0.56835938
0.39550781
-0.65917969
-0.04980469
-0.703125
0.10546875
-0.9140625
0.22265625
-0.75
-0.24609375
-0.91113281
0.796875
-0.06152344
0.67382812
0.14941406
0.68847656
0.26074219
1.48242188
0.02050781
-1.5
-1.5
-1.5
1.48242188
1.48242188
0.57714844
-0.41015625
-0.46875
1.48242188
0.9375
0.89648437
-0.046875
1.21289062
-1.45019531
1.48242188
-1.5
1.48242188
-1.5
1.48242188
-1.5
1.48242188
-1.5
0.52734375
-1.5
1.27148437
-1.5
0.03515625
-1.5
0.19628906
-1.5
-0.21679688
-1.5
1.48242188
-1.31835938
1.48242188
0.41308594
1.48242188
1.15722656
1.48242188
-1.5
1.48242188
-1.40625
1.48242188
-0.5625
1.48242188
-0.73242188
1.48242188
-1.5
-1.07519531
-1.5
1.29785156
-1.5
1.48242188
-1.5
1.48242188
-1.5
0.76171875
-1.5
1.43554688
-1.5
1.48242188
-1.27441406
1.48242188
-1.5
1.48242188
-1.5
1.48242188
-1.5
1.48242188
-1.5
1.48242188
0.8203125
-1.5
-1.5
1.48242188
-1.5
1.48242188
-1.31835938
1.48242188
-1.5
1.48242188
-1.5
1.48242188
-1.5
1.48242188
0.796875
1.078125
-1.5
1.48242188
-1.5
0.54785156
-1.5
1.48242188
-1.5
0.234375
-1.5
1.48242188
-1.5
0.77929687
0.31054687
1.48242188
-1.5
1.48242188
-1.5
-0.78808594
-1.5
1.48242188
1.48242188
1.48242188
-1.5
-0.38671875
-1.5
1.48242188
-1.5
-0.04980469
-1.5
1.48242188
-1.5
0.82324219
-1.5
1.48242188
-1.5
1.47949219
-1.34765625
1.48242188
-1.5
-1.02832031
-1.5
1.48242188
-1.5
-0.80273438
-1.5
-0.80273438
-1.5
0.57128906
-1.5
1.48242188
1.30664062
1.48242188
0.45410156
1.48242188
1.48242188
1.48242188
-1.5
1.48242188
-0.60644531
1.48242188
0.09960938
1.48242188
-1.5
1.48242188
-1.5
1.48242188
-1.01074219
1.48242188
-1.5
1.44140625
-1.5
1.48242188
-1.5
1.48242188
-0.52734375
1.48242188
-1.5
1.48242188
-1.5
1.48242188
-1.5
1.48242188
-1.5
1.48242188
-1.5
1.48242188
-1.5
1.40625
-1.5
1.48242188
-1.5
1.48242188
-1.5
1.48242188
-1.5
1.38574219
-1.5
1.48242188
-1.5
1.48242188
-1.5
1.48242188
-1.5
1.48242188
-1.5
1.48242188
-1.5
1.48242188
-1.5
1.48242188
-1.5
1.48242188
-1.5
1.48242188
-1.5
1.48242188
-0.45996094
1.48242188
-1.5
1.48242188
-1.5
-0.17871094
-1.5
1.48242188
1.48242188
1.48242188
-1.5
1.48242188
-1.5
1.48242188
-1.5
1.48242188
-1.5
1.48242188
-1.5
1.43554688
-1.5
1.48242188
0.43652344
1.48242188
-1.5
-0.60351562
-1.5
1.48242188
-0.90820312
1.48242188
-1.5
-1.5
-1.5
-1.5
-1.5
-1.5
-0.51855469
0.05859375
0.37207031
1.48242188
1.48242188
1.48242188
1.48242188
1.48242188
1.48242188
1.48242188
1.2890625
1.09863281
0.18457031
0.88769531
0.52441406
0.84667969
0.31347656
0.89355469
-0.22265625
0.78808594
-0.38378906
-0.48632812
-0.20214844
1.48242188
-1.5
-0.21972656
-0.24316406
0.23730469
-0.32519531
0.69140625
1.13964844
-0.04980469
-1.5
-0.36621094
-0.50097656
0.0703125
-0.35449219
1.39160156
-0.33984375
0.1171875
-0.97558594
-0.35449219
-0.31933594
0.53613281
-0.11132812
0.96386719
-0.70898437
-0.60058594
-0.01464844
-0.13183594
-0.79394531
0.55664062
-0.38085938
0.1171875
-0.22851562
0.48632812
-0.63574219
0.31347656
-0.15527344
0.38378906
-0.18164062
0.30175781
-0.32519531
1.16015625
-0.54199219
-0.47753906
-0.47167969
-0.35449219
-0.75585938
-0.14648438
-0.74121094
-0.3984375
-0.75292969
1.02246094
0.92871094
0.24316406
-1.06933594
0.20507812
-0.41601562
-0.03808594
-1.5
-1.5
-1.5
1.48242188
1.48242188
1.48242188
0.10546875
-0.03808594
-0.73535156
-0.17871094
-0.48925781
-0.08203125
-0.75585938
1.30078125
-0.19628906
-0.88476562
-0.94335938
-0.43652344
-0.34863281
-0.19921875
-0.57714844
-0.84082031
-1.5
-1.04589844
-1.5
-1.5
-1.5
-1.5
-1.5
-1.20703125
-1.5
-0.94628906
-0.46875
1.48242188
1.48242188
1.48242188
1.48242188
1.48242188
1.48242188
1.48242188
1.48242188
1.48242188
1.17480469
1.48242188
1.01953125
1.16015625
1.20703125
1.33886719
0.42480469
0.02929688
0.00585937
1.48242188
-0.99023437
0.5390625
-0.28710938
0.48339844
-0.54492187
0.10253906
-0.43066406
0.13476562
0.43066406
0.17578125
-0.79394531
0.31054687
-0.15234375
0.36621094
0.30761719
0.23730469
-0.52148438
-0.43359375
-0.44238281
0.34277344
0.07324219
-0.06738281
-0.5390625
1.20996094
-0.48925781
0.1171875
-1.21582031
-0.046875
-0.33984375
0.18457031
-0.27539062
0.33105469
0.19628906
-0.04394531
-0.9375
0.52148438
-0.10839844
0.42773437
-0.04980469
-0.64453125
-0.70605469
-0.08789062
-0.42480469
0.40429688
0.14355469
-0.3984375
-1.5
-0.3046875
-0.86132812
0.61523438
0.14941406
0.79101562
-0.16699219
0.3515625
-0.40722656
0.30175781
-1.08691406
-1.5
-1.5
-1.5
1.48242188
1.48242188
0.609375
-0.13183594
-1.21582031
-0.52148438
-0.88769531
-0.21972656
-1.08398438
-0.12304688
-0.63867188
-0.53320312
-1.08984375
-0.26367188
-1.0078125
0.19921875
-0.62109375
-1.44726562
-1.5
-0.99023437
-1.5
-1.5
-1.5
-1.5
-1.5
-1.5
-1.5
-0.84667969
-1.5
0.97851562
0.82910156
1.48242188
1.48242188
1.48242188
1.48242188
1.48242188
1.48242188
1.48242188
1.34765625
1.48242188
1.07519531
1.48242188
0.71484375
1.48242188
0.55371094
1.078125
1.05175781
0.61230469
-0.78808594
0.42480469
-0.62988281
0.22558594
-0.01171875
0.20214844
0.67675781
0.05566406
-0.92285156
-0.09375
-0.98144531
0.13183594
-0.39550781
0.98144531
-0.91113281
-0.10253906
-1.08984375
-0.17871094
-0.65917969
0.30761719
-0.62988281
-0.33984375
-1.19824219
0.15527344
-0.67675781
-0.31347656
-0.890625
1.01660156
-1.5
-0.89941406
0.20214844
0.76464844
0.33691406
0.890625
-0.07617188
0.88476562
-0.703125
-1.5
-1.5
-0.73828125
1.48242188
1.48242188
0.69433594
0.515625
-0.98730469
0.97265625
0.48632812
-1.4765625
-1.20996094
-0.28417969
-1.38574219
-0.32519531
-0.72949219
0.29589844
-0.4921875
-0.27246094
-1.5
-0.42773437
-1.06640625
-0.42480469
-1.04589844
-0.99316406
-1.5
-1.5
-1.5
-1.5
-1.5
-1.09277344
-0.35449219
0.88476562
1.3359375
1.48242188
1.48242188
1.48242188
1.48242188
1.48242188
1.48242188
1.48242188
1.48242188
1.48242188
0.26074219
0.60644531
0.35449219
0.80566406
0.140625
1.06933594
0.80273438
-0.1171875
0.14648438
0.25488281
-0.16699219
0.02050781
-0.85546875
0.23730469
-0.03808594
1.22460937
-0.00585937
0.78222656
-0.52441406
-0.54785156
-0.66210937
-0.33105469
-0.71191406
0.41015625
-0.1875
-0.20800781
0.05566406
-0.52734375
-1.42675781
-0.14648438
0.53027344
1.48242188
-0.32519531
0.18457031
-0.08496094
1.48242188
0.08789062
-1.5
-1.5
-1.5
1.48242188
1.48242188
0.97558594
-0.05273438
-0.53613281
-0.60058594
-1.5
-0.20800781
-0.14941406
-1.05175781
-1.18652344
-0.04980469
-0.73535156
-0.31054687
-0.49511719
-0.83203125
-1.26269531
-0.31054687
-0.13476562
-0.73242188
-1.27734375
-1.5
-1.5
-1.5
-1.5
-1.5
-1.5
-1.2421875
-0.61523438
1.48242188
1.48242188
1.48242188
1.48242188
1.48242188
1.48242188
1.48242188
1.48242188
1.48242188
1.25683594
-0.10839844
0.68847656
0.55078125
0.62402344
0.26367188
-0.31347656
0.37207031
-0.03808594
1.05761719
-0.82324219
0.15820312
-0.9140625
0.12890625
-0.33984375
0.35742188
-0.31933594
0.0703125
-0.24023437
0.67089844
-0.07324219
-0.11132812
-1.11328125
0.22265625
-0.27246094
0.20214844
-0.14355469
0.27246094
0.31640625
-0.16699219
-0.61523438
0.38671875
1.23046875
-0.33691406
-0.99316406
0.02050781
-0.76757812
0.02636719
-0.60058594
0.19628906
-0.10253906
0.79101562
-0.45996094
-1.1484375
-1.5
-0.54785156
-1.18652344
0.30175781
0.56835938
0.91699219
0.00878906
1.03710938
0.43359375
0.40136719
-0.30761719
-1.5
-1.5
-1.5
1.48242188
1.48242188
1.48242188
0.85253906
-0.88769531
-0.78222656
-0.8203125
1.04882812
-0.01464844
-1.48242188
-1.5
0.00878906
-0.98144531
-0.22851562
-0.65039062
0.20800781
-1.06054687
1.04296875
-0.70605469
-1.5
-1.5
-1.30371094
-1.5
-1.5
-1.5
-1.5
-1.5
-1.28320312
-1.5
0.65332031
0.88183594
1.48242188
1.48242188
1.48242188
1.48242188
1.48242188
1.48242188
1.48242188
1.48242188
1.48242188
0.96972656
0.96972656
0.10546875
1.48242188
0.01464844
0.72949219
-0.26074219
0.49511719
0.0
0.40136719
-0.22558594
0.26660156
-0.046875
0.29882812
-0.11132812
0.1875
0.7734375
-0.22265625
-0.09960938
0.328125
-0.62109375
0.58886719
0.26953125
-0.41894531
-0.13769531
0.50976562
0.74121094
-0.49511719
-1.5
0.01171875
0.43066406
-0.29882812
-1.25390625
0.08496094
0.13476562
-0.02929688
-1.42382812
-0.09082031
-0.6328125
0.0703125
-0.06738281
0.85253906
0.47753906
0.45703125
-0.60644531
0.30175781
-0.72070312
0.97265625
-0.54785156
-0.89648437
0.10546875
0.86425781
0.0234375
-1.5
-1.24511719
0.41308594
-0.41015625
0.38671875
-0.26660156
0.71191406
0.39257812
-0.14648438
-0.77636719
-1.30078125
-1.5
-1.5
1.48242188
1.48242188
1.48242188
0.03808594
-0.96679688
0.02636719
-0.00585937
0.28125
-1.5
1.08105469
-1.5
-0.57128906
-0.48925781
-1.08105469
-0.76171875
1.1015625
-1.5
-1.5
-1.5
-0.74414062
-0.9140625
-1.02246094
-1.5
-0.71484375
-1.5
-0.95214844
-1.5
-1.5
-1.5
0.36328125
0.5390625
1.48242188
1.48242188
1.48242188
1.48242188
1.48242188
1.48242188
1.48242188
1.40625
1.48242188
1.13671875
1.48242188
0.89355469
1.48242188
0.48046875
1.05175781
0.52441406
1.39746094
-0.03515625
0.11425781
-0.2578125
0.46289062
-0.10839844
0.59472656
0.03515625
0.36621094
0.8203125
0.85546875
-1.5
0.20800781
-0.84960938
-0.6328125
-0.84082031
0.12011719
1.28320312
-0.12304688
-1.5
-0.36621094
-0.609375
-0.03808594
-0.6328125
0.01171875
-0.51855469
0.11425781
-0.53613281
0.10253906
-0.19921875
0.00292969
-0.26953125
1.48242188
-1.265625
-0.46289062
-0.82324219
0.17578125
-0.41015625
-0.19921875
-0.24609375
0.34570312
-0.21972656
0.86132812
-0.03222656
-0.70898437
-0.19628906
-0.34863281
-1.27734375
-0.79980469
-0.51855469
-0.22558594
-0.59472656
0.36328125
0.12011719
0.96679688
0.04394531
0.5390625
-0.08496094
0.03808594
-1.13085938
-1.5
-1.5
-0.3046875
1.48242188
1.48242188
-0.00292969
-0.12011719
-0.85253906
-0.30175781
-0.12597656
-0.76171875
-0.63867188
-0.046875
-0.88769531
-0.31640625
-0.50390625
-1.01367188
-1.27734375
-0.43652344
-0.53027344
-0.69140625
-1.5
-0.66796875
-1.5
-1.32128906
-1.5
-1.5
-1.5
-1.5
-1.5
-1.06640625
-0.67675781
1.39160156
1.48242188
1.48242188
1.48242188
1.48242188
1.48242188
1.48242188
1.48242188
1.48242188
1.26269531
1.48242188
1.0546875
1.48242188
1.48242188
1.47949219
0.67675781
0.78808594
-0.48632812
0.17871094
-0.09375
0.25488281
0.02050781
0.97851562
-0.18164062
0.00878906
-0.1640625
-0.57714844
-0.59765625
0.01757812
-0.29296875
0.23144531
-0.50683594
1.48242188
-0.41894531
-0.57128906
-1.08984375
-0.234375
-0.43945312
0.328125
-0.47753906
-0.04394531
-0.45410156
-0.04980469
-0.82910156
-0.36035156
-0.71484375
-0.13769531
-0.328125
1.32714844
-1.15722656
-0.43359375
-0.38671875
-0.43652344
-0.82324219
-0.84375
-0.9140625
0.36328125
-0.72949219
-0.40136719
-0.06738281
0.12304688
-0.56542969
0.0234375
0.13183594
1.06054687
0.09960938
0.34863281
0.29882812
0.97851562
-0.23730469
0.20800781
-1.5
-1.5
-0.99023437
1.48242188
1.48242188
1.25683594
-0.515625
-0.43066406
-1.18066406
-0.15820312
-0.84375
-0.47753906
-0.60058594
-0.24023437
-0.60351562
-0.44824219
-0.42773437
-0.14355469
-1.37695312
-0.79980469
-1.28027344
-1.26269531
-1.5
-1.171875
-1.5
-1.5
-1.5
-1.5
-1.5
-1.5
-1.5
-0.27832031
0.27246094
1.48242188
1.48242188
1.48242188
1.48242188
1.48242188
1.48242188
1.48242188
1.48242188
0.90234375
0.53027344
1.48242188
1.48242188
-1.5
1.47949219
1.48242188
1.48242188
1.15429688
1.30371094
1.48242188
-1.5
-1.5
1.48242188
1.48242188
1.48242188
1.48242188
-0.10253906
0.1640625
-0.41015625
0.57714844
-0.08496094
-0.14941406
-0.5390625
-0.03515625
-0.62988281
-0.52441406
-0.67675781
-0.59179687
-1.5
-0.81152344
-1.17773438
0.03808594
0.03222656
1.48242188
-0.26367188
-0.26074219
-0.81445312
-0.140625
-0.83203125
-0.99023437
-1.5
0.23144531
-0.3046875
-0.92285156
-1.16308594
-0.50097656
-0.16113281
0.421875
-0.63574219
-0.67089844
-1.29785156
-0.99902344
-0.92578125
-0.72949219
-0.14355469
1.40332031
1.48242188
1.21289062
0.41894531
0.75585938
-1.5
-1.5
-1.5
1.48242188
1.48242188
1.48242188
0.62695312
1.11035156
-0.08203125
0.66503906
-0.14648438
-0.53613281
-1.5
-0.51269531
-0.53320312
0.2578125
-1.5
0.05273438
-1.34765625
-0.67675781
-0.89648437
0.05859375
-1.01367188
-1.265625
-1.5
-1.5
-1.5
-1.5
-1.5
-1.5
-1.5
-1.5
1.48242188
1.48242188
1.48242188
1.48242188
1.48242188
1.48242188
1.48242188
1.27148437
1.48242188
1.48242188
1.48242188
1.48242188
1.48242188
0.61816406
0.81445312
0.78808594
0.08789062
0.50390625
-0.5625
1.01367188
-0.00292969
1.28320312
0.95800781
-0.07617188
-0.9140625
-0.75878906
0.27246094
1.02832031
-0.13476562
0.93164062
-1.5
-1.5
1.48242188
1.48242188
-0.50390625
0.78222656
-0.19921875
-0.12304688
-0.12890625
0.46582031
-0.61523438
0.15234375
-0.50097656
-0.36328125
-0.97265625
-0.43652344
-0.59179687
-1.0078125
-1.03125
1.06347656
0.74707031
0.48925781
-0.94335938
-0.27246094
-0.73242188
-0.28417969
-0.74121094
-0.2109375
-0.609375
-0.56542969
-0.55664062
-0.22558594
-0.55957031
0.58300781
-0.4453125
-0.63574219
-0.40429688
-1.32128906
-0.71191406
0.94628906
0.17285156
1.48242188
-0.33105469
1.3828125
0.96679688
0.41308594
-1.5
-1.5
-1.5
1.48242188
1.48242188
1.48242188
0.18164062
0.26367188
-0.64453125
-0.29296875
-1.01953125
-0.84375
-1.02539062
0.73242188
0.05273438
-0.2109375
-1.5
-0.13476562
-0.50683594
-0.98144531
-0.8671875
-0.09375
-1.5
-0.94921875
-1.5
-1.5
-1.5
-1.5
-1.5
-1.5
-1.5
-1.5
-0.24023437
1.12792969
1.48242188
1.48242188
1.48242188
1.48242188
1.48242188
1.48242188
1.48242188
1.48242188
1.48242188
1.48242188
0.96386719
1.3125
0.91992188
1.25976562
0.45703125
0.68261719
0.43359375
0.61230469
-0.12011719
0.35449219
0.24023437
0.10253906
-0.42480469
-0.06738281
-0.30175781
-0.04394531
-0.27246094
0.11425781
0.0
0.02636719
-0.61523438
0.94628906
0.27539062
0.53320312
-0.75878906
-0.41015625
-0.44824219
-0.20800781
0.33984375
0.83496094
-0.69433594
0.31054687
0.01171875
-0.23144531
-0.63574219
-0.20507812
0.375
-0.03515625
-0.06445312
0.39257812
-0.12011719
0.29589844
-0.68847656
0.19921875
-0.36621094
0.28710938
-0.66796875
-0.11132812
-0.43652344
-0.7265625
-0.82617187
-1.04882812
-0.75292969
-0.86425781
-0.92871094
-1.5
-0.8671875
0.703125
0.12890625
0.21386719
-0.06152344
-0.14355469
-0.54785156
0.47167969
-1.5
-1.5
-1.5
1.48242188
1.48242188
1.48242188
-0.05566406
-0.42480469
-1.5
-0.1171875
-0.21386719
-0.41015625
-0.01171875
0.70605469
-0.52441406
-0.45703125
-0.59179687
-0.23144531
-0.83789062
-0.38085938
-0.8671875
-1.18652344
-1.5
-0.73242188
-1.34472656
-1.5
-1.5
-1.5
-1.5
-1.5
-1.5
-1.01953125
-0.20214844
1.00195312
1.48242188
1.48242188
1.48242188
1.48242188
1.48242188
1.48242188
1.48242188
1.48242188
1.48242188
1.48242188
1.09863281
1.35644531
0.40429688
0.97851562
0.55957031
0.48632812
0.36328125
0.38964844
0.08789062
-0.55957031
0.18164062
0.83203125
0.03808594
0.85546875
0.421875
-0.09667969
-0.05566406
-0.54492187
-0.26367188
0.60058594
-0.00878906
0.21972656
-0.99023437
0.23144531
0.02050781
0.35742188
-0.2109375
0.25488281
-0.00878906
0.11425781
-0.08203125
0.07324219
-1.0546875
0.49804688
0.421875
0.24316406
-0.046875
0.56542969
0.22265625
-0.36035156
-0.48925781
-0.26660156
-0.25488281
0.13183594
-0.98144531
-0.87011719
0.58007812
0.08789062
-0.46875
-0.13183594
-0.87304688
-0.65917969
-1.12207031
0.20214844
-0.23730469
1.07226562
-0.46875
0.31640625
0.26367188
0.48046875
-0.08203125
0.19042969
0.20507812
-1.5
-1.5
-1.5
1.48242188
1.48242188
1.48242188
0.30175781
0.17871094
-1.23046875
-0.91992188
-0.29589844
-0.98730469
-1.11328125
-1.5
-0.42480469
-1.08984375
-0.50683594
-1.05175781
-0.41308594
0.42480469
-1.37402344
-1.5
-0.515625
-1.01367188
-1.41796875
-1.5
-1.5
-1.5
-1.5
-1.5
-1.5
-1.5
0.43359375
1.47949219
1.48242188
1.48242188
1.48242188
1.48242188
1.48242188
0.97851562
1.48242188
1.48242188
1.48242188
1.48242188
1.34765625
0.984375
0.62695312
0.69726562
0.64160156
-0.140625
0.45410156
0.04101562
1.48242188
1.19824219
0.34277344
0.29589844
0.42773437
0.09082031
0.49804688
0.43652344
0.796875
-0.37792969
0.22851562
0.06445312
0.86425781
-0.5859375
-0.328125
-0.09375
0.70019531
-0.99609375
-0.10546875
0.04394531
0.27832031
-0.7734375
-0.72363281
-0.27832031
0.13183594
-1.35351562
0.23730469
-0.50097656
-0.99316406
0.72949219
-1.14257812
-1.08105469
-1.03417969
-1.5
-0.99902344
-0.06738281
-0.26367188
-1.43261719
-1.29492187
-0.29296875
-0.01757812
-0.09667969
0.13476562
0.43066406
0.48925781
0.45410156
0.65039062
-0.24609375
-1.5
-1.5
-1.5
1.48242188
1.48242188
1.48242188
0.42773437
-0.76464844
-0.52148438
-0.59472656
-0.12011719
-0.48339844
1.13378906
-1.5
-1.32128906
-0.94921875
-0.26074219
-0.62988281
-0.35449219
-0.30761719
-0.09082031
-0.89355469
-1.23339844
-1.5
-1.5
-0.36621094
-1.5
-1.5
-1.5
-1.5
-1.5
-1.5
0.05273438
0.98144531
1.48242188
1.48242188
1.48242188
1.48242188
1.48242188
1.48242188
1.48242188
1.15136719
1.47949219
0.85839844
1.48242188
0.75878906
0.94335938
0.78808594
0.63574219
0.08496094
0.16113281
-0.16113281
0.34570312
-0.41308594
-0.140625
1.25097656
-0.04394531
-0.13476562
0.13769531
0.34863281
0.25195312
-0.328125
0.88183594
0.59472656
0.82910156
0.17285156
-0.07910156
0.01171875
0.02929688
-0.03222656
0.68261719
-0.62402344
-0.20214844
-0.08203125
0.12890625
0.18164062
-0.09082031
0.08496094
-0.17578125
0.13769531
0.48925781
-0.41601562
-0.2578125
-0.86132812
0.16699219
-0.50976562
-0.63867188
-0.7734375
-0.64746094
-0.62695312
-0.06738281
0.02929688
0.08203125
0.37207031
0.45703125
-0.12890625
0.16992188
-0.34863281
-0.56835938
-1.5
-1.5
-1.5
1.48242188
1.48242188
0.54199219
-0.32519531
-1.04882812
-0.1875
-0.6796875
-1.5
-0.56542969
-0.76464844
-0.50683594
-1.3125
-0.14355469
-0.375
-0.84375
-0.87890625
-0.76171875
-0.50097656
-0.99609375
-1.40332031
-1.35644531
-1.5
-1.5
-1.5
-1.5
-1.5
-1.5
-1.5
-0.37792969
0.72949219
1.48242188
1.48242188
1.48242188
1.48242188
1.48242188
1.48242188
1.48242188
1.48242188
1.48242188
1.40917969
1.48242188
0.89355469
1.48242188
0.69433594
0.27246094
0.62695312
0.64160156
0.45996094
0.57714844
0.17578125
0.08203125
-0.02050781
0.09667969
-0.1875
-0.03808594
-0.16992188
0.32519531
0.20800781
-0.2109375
-0.49511719
-0.05566406
-0.328125
-0.22558594
-0.38964844
-0.00878906
-0.10839844
0.14355469
-0.10839844
-0.20800781
-0.38964844
-0.04394531
-0.08789062
-0.96972656
-0.41015625
-0.24316406
-0.43359375
0.12597656
0.13183594
0.02050781
-1.25976562
-0.38378906
0.25195312
0.56542969
0.45117187
-0.1640625
-0.29589844
0.34570312
-0.54199219
-0.70019531
-0.61230469
0.17871094
-0.69140625
-0.08496094
0.74707031
0.74121094
0.56835938
0.88476562
0.01757812
0.19042969
0.06738281
-1.04003906
-1.5
-1.5
0.48925781
1.48242188
1.48242188
0.9140625
-0.60351562
-1.35351562
-0.96386719
-0.76464844
-0.21679688
-1.02246094
-0.99609375
-1.08105469
-1.04882812
-0.9609375
-1.1484375
-1.32714844
-0.84960938
-0.71777344
-0.9609375
-1.25097656
-1.5
-1.5
-1.5
-1.5
-1.5
-1.5
-1.5
-1.5
-1.5
-0.35742188
0.87890625
1.48242188
1.48242188
1.48242188
1.48242188
1.48242188
1.48242188
1.48242188
1.48242188
1.48242188
1.48242188
1.13671875
1.48242188
1.48242188
0.609375
1.18066406
0.7265625
0.48339844
0.6328125
0.42773437
0.234375
0.04394531
0.4453125
0.53613281
-0.09375
0.37792969
0.11132812
-0.06152344
-0.37207031
0.87597656
0.62109375
0.60644531
-0.07910156
-0.23144531
0.34277344
0.3515625
-0.16699219
0.19628906
0.13476562
0.50097656
0.17871094
-0.40722656
-0.35449219
-0.43066406
-0.34863281
-0.24023437
-0.20507812
0.07324219
-0.0234375
-0.10253906
-0.94628906
-0.74707031
-0.73242188
0.03222656
-0.70019531
-0.41308594
-0.85546875
-1.04296875
-1.18945312
0.29589844
-0.08789062
0.66210937
0.49511719
0.65917969
0.9375
0.12890625
-1.24804688
-1.5
-1.5
-0.12890625
1.48242188
1.48242188
0.79394531
-0.00585937
-0.56542969
-0.56542969
-0.58886719
-0.60351562
-0.53027344
-0.65332031
-0.43652344
-0.53613281
-0.7265625
-0.44238281
-0.34277344
-1.29492187
-1.34765625
-1.1484375
-1.33007812
-1.5
-1.5
-1.5
-1.5
-1.5
-1.5
-1.5
-1.5
-1.5
-0.74414062
0.88183594
1.48242188
1.48242188
1.48242188
1.48242188
1.48242188
1.48242188
1.48242188
1.48242188
1.48242188
1.33007812
1.18066406
0.69726562
1.0078125
0.99902344
0.51269531
1.20117188
0.234375
0.21386719
0.61230469
0.0234375
0.22265625
0.16113281
-0.01464844
0.01171875
0.10839844
0.48632812
0.26660156
0.62695312
-0.23730469
0.00292969
-0.78222656
-0.140625
-0.046875
-0.5859375
-0.19335937
-0.24316406
0.19628906
0.29296875
-0.234375
0.30761719
0.09960938
0.46582031
0.17285156
0.09082031
-1.18945312
-0.23730469
-0.02636719
-0.35449219
-0.44824219
-0.19335937
-0.67675781
-0.29003906
-0.29296875
0.02636719
-0.25195312
-1.18359375
-0.2109375
-0.3515625
-0.03808594
0.54785156
0.59179687
0.9140625
1.0078125
0.75585938
0.5390625
0.09375
-1.5
-1.5
-1.5
1.48242188
1.48242188
1.48242188
0.24316406
-0.58300781
-0.61816406
-0.51269531
-0.48632812
-0.75585938
-0.51269531
-0.58300781
-0.67382812
-0.95214844
-0.45410156
-0.73242188
-0.66503906
-0.53320312
-0.7265625
-0.51855469
-1.06347656
-1.30957031
-1.5
-1.28613281
-1.5
-1.5
-1.5
-1.5
-1.5
-0.64746094
0.81152344
1.30078125
1.48242188
1.48242188
1.48242188
1.48242188
1.48242188
1.48242188
1.48242188
1.48242188
1.48242188
1.48242188
1.2890625
1.39453125
1.48242188
0.46289062
0.55371094
0.97558594
0.43359375
0.2578125
0.43359375
-0.22265625
-0.29296875
-0.27832031
-0.51855469
-0.62402344
-0.42773437
-0.48632812
-0.12597656
-0.48632812
-0.71777344
-0.56835938
-0.421875
-0.56542969
-0.61816406
-0.80273438
-0.77050781
-0.78515625
-0.42480469
-0.55664062
-0.84082031
-0.55957031
0.31933594
-0.93164062
-0.94042969
0.3515625
0.60351562
-0.43652344
-0.31347656
-0.09082031
0.30175781
0.25488281
0.19628906
0.31640625
0.34570312
0.375
0.34570312
0.09082031
0.14648438
-0.1171875
0.02050781
0.984375
0.91113281
1.42675781
0.703125
0.3984375
0.56542969
0.16699219
-1.5
-1.5
-1.5
1.48242188
1.48242188
1.48242188
0.22558594
-0.4453125
-0.89941406
-0.94628906
-0.84375
-1.02832031
-0.99609375
-1.07519531
-0.66210937
-1.46484375
-0.95507812
-1.27441406
-1.04296875
-1.47949219
-1.18066406
-1.26855469
-1.5
-1.5
-1.5
-1.5
-1.5
-1.5
-1.5
-1.5
-1.5
-1.5
1.03125
1.20996094
1.47949219
1.48242188
1.48242188
1.48242188
1.48242188
1.48242188
1.48242188
1.47949219
1.48242188
1.48242188
1.48242188
1.47949219
1.48242188
1.48242188
0.91699219
0.65332031
0.47167969
0.33984375
1.02539062
0.61816406
0.00292969
0.1875
0.06445312
0.17578125
0.34570312
-0.29003906
-0.16113281
-0.16699219
0.05273438
-0.03222656
-0.18457031
-0.05273438
0.15820312
0.0
0.1171875
-0.00292969
-0.15527344
0.046875
-0.046875
-0.23144531
-0.40136719
-0.10839844
-0.15234375
-0.29589844
-0.10546875
0.00585937
-0.14355469
-0.64453125
-0.69433594
-1.43847656
-1.5
-0.75292969
-0.45410156
-0.52441406
-0.81738281
-0.45410156
-0.54492187
-0.68554688
-0.21679688
0.16992188
1.06640625
0.70019531
1.05175781
0.69726562
0.66796875
0.14941406
-0.10253906
-1.5
-1.5
-1.5
1.48242188
1.48242188
1.23046875
-0.12011719
-0.50683594
-0.55371094
-0.0703125
0.07324219
-0.36621094
0.15820312
-0.3984375
-1.30664062
-0.40429688
-0.30175781
-0.72363281
-0.65625
0.11425781
-0.57421875
-0.76464844
-1.13085938
-1.5
-1.5
-1.5
-1.5
-1.5
-1.5
-1.5
-1.5
-0.94628906
0.46289062
1.48242188
1.48242188
1.48242188
1.48242188
1.48242188
1.48242188
0.89355469
1.47949219
1.48242188
1.48242188
1.26269531
1.265625
-0.44238281
-0.96972656
1.35351562
1.47949219
0.65917969
0.38085938
0.1171875
-0.36035156
-0.03515625
-0.50683594
-0.03222656
-0.14355469
-0.03222656
-0.16699219
0.10546875
-0.05859375
0.52734375
0.59765625
0.5390625
0.2109375
0.17285156
0.06445312
0.06738281
-0.18457031
0.04980469
-0.375
0.36621094
-0.01464844
-0.06738281
-0.04980469
0.04394531
-0.39550781
0.2578125
-0.36621094
0.12890625
-0.15234375
-0.01757812
-0.13476562
-0.44238281
-0.32226562
-0.31640625
-0.36621094
-0.42480469
-0.39550781
-0.85546875
-0.91992188
-0.10253906
0.3515625
0.57128906
0.29296875
0.31347656
0.14355469
0.20507812
-0.41601562
-1.21289062
-1.5
-1.5
0.86132812
1.48242188
1.48242188
0.6328125
-0.37792969
-0.76171875
-0.67382812
-0.16699219
-0.71484375
-0.36328125
-0.20214844
-0.08496094
-0.26074219
-0.02929688
-0.31054687
-0.30761719
-0.66503906
-0.05273438
0.20800781
-0.58300781
-1.5
-1.02539062
-1.31835938
-1.5
-1.5
-1.5
-1.5
-1.5
-1.5
-0.56542969
0.80273438
1.48242188
1.48242188
1.48242188
1.47949219
1.48242188
1.31542969
1.48242188
1.02246094
1.44140625
0.84082031
0.70019531
0.52441406
0.67089844
0.046875
0.12304688
-0.22558594
-0.28710938
-0.3515625
-0.00585937
-0.22558594
-0.50683594
-0.27246094
-0.14941406
0.05273438
-0.26074219
0.37207031
0.54492187
1.47949219
0.09667969
-0.29296875
0.58300781
0.64453125
1.08691406
0.97558594
0.77929687
1.24804688
1.28613281
0.77050781
0.70019531
1.08691406
0.70898437
-0.16113281
0.13769531
0.20800781
0.33398437
-0.28417969
-0.26367188
0.01171875
0.10253906
-0.36328125
-0.47753906
-0.41015625
-0.38378906
0.60351562
0.62988281
-1.5
-1.5
-1.10449219
-0.98730469
-0.84375
-0.80273438
-1.29199219
-1.078125
-0.55078125
-0.17871094
-0.85546875
-0.23144531
-0.57421875
-0.45996094
-1.29492187
-1.03125
-1.5
-1.5
-1.5
1.48242188
1.48242188
0.34277344
-0.90527344
-0.63574219
-0.89941406
-0.08496094
-0.37207031
-0.27246094
-0.36914062
-0.19921875
-0.36035156
-0.16699219
-0.12890625
-0.31640625
-0.25488281
-0.2109375
-0.68554688
-0.27246094
-0.89941406
-0.79980469
-1.23339844
-1.5
-1.5
-1.5
-1.5
-1.5
-1.5
-0.88476562
1.25097656
1.48242188
1.48242188
1.48242188
1.48242188
1.48242188
1.48242188
1.48242188
1.48242188
1.48242188
1.48242188
1.48242188
1.25097656
1.22460937
0.76464844
0.41601562
0.84082031
0.48339844
-0.28417969
-0.2109375
0.06152344
-0.10839844
-0.69726562
-0.77929687
-0.85253906
-0.03222656
-0.4453125
-0.45996094
-0.60351562
0.04980469
-0.17578125
-0.0234375
-0.02929688
0.33105469
0.28125
0.35742188
0.07617188
0.63574219
0.07324219
0.515625
0.51269531
0.68261719
-0.09667969
0.3046875
0.09375
0.62109375
0.18457031
0.38378906
0.09667969
0.30175781
0.09960938
0.14941406
-0.09667969
0.19628906
-0.04394531
0.14355469
-0.59472656
-0.26953125
-0.52441406
-0.45703125
-0.33984375
-0.46289062
-1.05761719
-0.30761719
-0.50683594
0.07617188
0.09375
0.47167969
0.1640625
0.12597656
0.16113281
0.48925781
-1.5
-1.5
-1.5
1.48242188
1.48242188
1.43261719
-0.54199219
-0.9375
-1.21289062
-0.66796875
-0.97851562
-1.03417969
-0.890625
-0.75
-1.01953125
-0.81738281
-1.1015625
-0.38964844
-0.58300781
-0.9609375
-1.07519531
-1.1015625
-1.44140625
-1.30078125
-1.5
-1.5
-1.5
-1.5
-1.5
-1.5
-1.5
-0.80859375
0.79101562
1.48242188
1.48242188
1.48242188
1.48242188
1.48242188
1.48242188
1.48242188
1.47949219
1.48242188
1.48242188
1.48242188
0.890625
1.14550781
0.85253906
1.1484375
0.5859375
0.84667969
0.81152344
0.63867188
0.26953125
-0.01171875
-0.28417969
-0.2109375
-0.13769531
0.09375
0.19921875
0.30761719
0.10839844
0.09960938
-0.51855469
-0.41015625
-0.40722656
-0.07324219
-0.10546875
0.12011719
-0.01464844
0.375
-0.12597656
-0.00585937
-0.49804688
-0.328125
-0.40429688
-0.36914062
-0.8203125
-0.2109375
-0.14941406
-0.22558594
-0.1171875
0.27539062
0.04980469
0.0234375
0.12890625
0.55078125
0.0703125
0.03808594
-0.06152344
0.140625
0.12304688
0.37207031
-0.10546875
-0.3046875
0.26367188
-0.07324219
-0.23144531
-0.01171875
0.11132812
0.24609375
0.16992188
0.07324219
-0.24609375
0.26074219
-0.26367188
-1.5
-1.5
-1.5
1.48242188
1.48242188
0.9375
0.12597656
-0.88183594
-0.9375
-0.51269531
-0.2578125
-0.65917969
-0.76757812
-0.74414062
-0.57714844
-0.73535156
-0.03222656
-0.55078125
-0.20800781
-0.36328125
-0.58886719
0.08203125
-0.58300781
-0.9609375
-0.78808594
-1.16601562
-0.81738281
-1.47363281
-1.5
-1.5
-1.5
-0.48925781
1.04296875
1.48242188
1.48242188
1.48242188
1.48242188
1.48242188
1.48242188
1.47949219
1.48242188
1.48242188
1.48242188
1.09863281
0.82910156
0.75585938
0.58007812
0.15234375
-0.06445312
-0.53613281
0.10253906
-0.61523438
-0.55957031
-1.5
-0.87597656
-0.47167969
0.55078125
0.328125
-0.69140625
-1.5
-0.36621094
0.29589844
-0.92871094
-0.11132812
-1.14550781
-1.5
-1.5
-1.5
1.48242188
1.48242188
1.48242188
0.97851562
-0.14355469
0.66796875
-1.5
-1.5
-1.5
1.48242188
1.48242188
1.47949219
1.19824219
-1.5
-0.22851562
1.20996094
-0.38085938
1.48242188
0.15527344
-1.5
-1.5
-1.40332031
-1.5
1.48242188
1.48242188
0.20800781
-1.5
-0.09667969
1.48242188
-0.89648437
-0.3046875
1.48242188
0.75878906
-1.47949219
-1.5
-1.5
-1.5
1.48242188
1.48242188
1.47949219
-1.5
0.15820312
1.48242188
-1.5
1.48242188
-0.52441406
0.94042969
-1.25683594
-0.08496094
-0.02636719
-0.32519531
-0.62988281
-0.8203125
-1.06640625
-1.5
-1.5
-0.36914062
1.48242188
-0.74414062
-1.5
-1.32421875
-1.5
-1.5
-0.28125
-0.77929687
-1.23925781
0.421875
1.47949219
1.48242188
1.48242188
1.48242188
1.47949219
1.48242188
1.48242188
1.48242188
1.30664062
1.48242188
1.48242188
0.93457031
0.48925781
-0.046875
0.28417969
-0.11425781
-0.2109375
0.40429688
-0.09960938
-0.2109375
-0.94921875
-0.88183594
-1.04003906
-0.73242188
-0.50683594
-0.14355469
-0.46582031
0.02636719
-0.35449219
-0.35449219
-0.73828125
-0.68261719
-0.95507812
-0.39550781
-0.50976562
-0.35742188
-0.31054687
0.18457031
-0.29296875
0.25488281
-0.09960938
0.28125
-0.91992188
-0.328125
-0.31640625
0.36328125
0.33398437
0.79394531
0.58007812
1.00195312
0.18457031
0.31054687
0.38378906
0.71191406
0.50390625
1.13085938
-0.30761719
0.07617188
0.68554688
0.77636719
-0.1640625
0.1171875
-0.14648438
-0.31933594
-0.58300781
-0.44238281
-0.78808594
-0.43066406
-0.6796875
0.45117187
0.19628906
0.57128906
0.07910156
0.140625
-0.27246094
-0.16113281
-1.5
-1.5
-1.5
1.48242188
1.48242188
1.48242188
-0.15527344
0.48046875
-0.30175781
-0.81152344
-0.43652344
-0.62695312
-1.04882812
-0.609375
-1.5
-1.5
0.70019531
0.84082031
-0.45996094
-0.30761719
-1.01953125
-0.21972656
-0.9375
-1.15429688
-1.5
-1.5
-1.5
-1.5
-1.5
-1.5
-1.5
0.72070312
1.47949219
1.48242188
1.48242188
1.48242188
1.48242188
1.48242188
1.48242188
1.48242188
1.47949219
1.48242188
1.48242188
1.48242188
1.48242188
1.4765625
1.48242188
1.23925781
0.8671875
0.88476562
0.62988281
0.61816406
-0.2578125
0.00292969
-0.49804688
-0.02050781
-0.375
0.20214844
0.03515625
0.28710938
-0.00585937
-0.18164062
-0.24316406
0.54492187
-0.4453125
-0.66210937
-0.71484375
0.18457031
-0.53320312
0.13183594
-0.8203125
0.57421875
-0.79394531
0.80566406
1.01660156
0.41015625
-0.87597656
-1.5
-1.04003906
1.4765625
0.0
-0.56835938
0.77636719
1.21582031
0.15234375
0.49511719
0.02929688
-0.07324219
-0.88476562
-0.51855469
-0.74707031
-0.13183594
-0.20800781
0.56542969
0.99316406
0.14648438
-0.14648438
-0.3984375
0.07910156
0.59472656
0.2578125
0.47167969
0.28125
0.65039062
-0.22851562
0.04394531
-1.5
-1.5
-1.5
1.48242188
1.48242188
0.703125
-0.44824219
-0.44824219
-1.16894531
-0.46875
-1.27148437
-0.27246094
-0.72949219
-0.60644531
-0.71777344
-0.16699219
-0.70898437
-0.26953125
-0.51269531
-0.01757812
-0.43066406
-1.01660156
-1.5
-0.14355469
-0.80859375
-1.41210938
-1.5
-1.5
-1.5
-1.5
-1.5
-0.66503906
0.48925781
1.47363281
1.48242188
1.48242188
1.48242188
1.47949219
1.48242188
1.31542969
1.22167969
1.33007812
0.8203125
1.19824219
1.25097656
0.23144531
0.34863281
1.11328125
-0.03808594
0.59472656
-0.00585937
-0.01171875
-0.19042969
0.04394531
-0.16992188
-0.29589844
-0.24902344
0.31933594
0.54199219
0.78222656
0.33984375
0.53613281
0.140625
0.05859375
-0.43359375
-0.16113281
-0.41601562
-0.07324219
-0.29589844
0.17285156
-0.04394531
0.28710938
-0.23730469
0.31640625
-0.12890625
0.30175781
0.03222656
-0.24609375
-0.28710938
0.27832031
-0.01171875
0.26660156
-0.39257812
-0.1171875
-0.50097656
-0.46875
-1.09863281
-0.52148438
-0.79101562
-0.62402344
-1.02832031
-0.45117187
-1.00195312
-0.328125
-0.140625
0.78808594
0.25195312
0.54492187
-0.09667969
-0.7265625
-0.43066406
0.17285156
-1.5
-1.5
-1.5
1.48242188
1.48242188
1.48242188
-0.046875
-0.88476562
-1.5
1.00488281
0.38378906
0.48339844
0.38378906
-0.45996094
-0.8203125
0.27246094
-0.19628906
0.20507812
-0.55371094
-1.5
-0.11425781
1.48242188
1.48242188
0.95800781
-1.23339844
-1.5
-1.5
-1.5
-1.5
-1.5
-1.5
-0.3515625
0.35742188
1.23046875
1.48242188
1.48242188
1.47949219
1.48242188
1.48242188
1.48242188
1.47949219
0.24316406
0.28710938
1.48242188
1.47949219
1.45605469
0.55371094
0.45117187
-1.5
-1.5
-0.34863281
-1.5
1.23339844
1.34472656
1.48242188
1.48242188
0.49511719
0.43945312
-0.52441406
0.08496094
-0.35449219
-0.20214844
-0.78808594
-0.67382812
-0.76171875
-0.69140625
-0.17871094
0.2578125
0.03808594
0.35449219
-0.37792969
0.11425781
-0.23144531
-0.06152344
-0.62109375
-0.00585937
-0.32226562
0.04394531
-0.33398437
-0.19042969
-0.22558594
0.00878906
-0.27246094
0.05566406
-0.54199219
0.12597656
-0.77636719
-0.30761719
0.10253906
0.04394531
-0.54199219
0.38378906
-0.23144531
0.66210937
0.19628906
0.00585937
-0.08496094
-0.13769531
-0.67675781
-1.5
-1.5
-1.5
1.48242188
1.48242188
0.56835938
0.59765625
-1.04589844
-0.33105469
-0.46875
-0.57421875
-1.30957031
-0.53027344
-0.53613281
0.02050781
0.24316406
-0.13183594
-0.94921875
-1.22753906
-0.95800781
-0.26074219
-1.06054687
-0.796875
-1.40332031
-1.07519531
-1.5
-1.5
-1.5
-1.5
-1.5
-1.5
-0.5390625
1.02539062
1.48242188
1.48242188
1.48242188
1.48242188
1.48242188
1.48242188
0.92285156
1.04003906
1.47949219
1.48242188
1.48242188
1.48242188
0.83203125
0.30761719
-0.07617188
0.19921875
-0.46582031
-0.01464844
-0.26367188
0.234375
-0.15234375
0.24609375
-0.30761719
-0.15820312
-0.70898437
0.1875
-0.22558594
0.96679688
0.15234375
0.84667969
0.33691406
0.46289062
-0.66503906
-1.11621094
-1.15136719
0.16992188
-0.66210937
-0.00878906
-0.37792969
-0.00878906
-0.55371094
0.41015625
-0.47460938
-0.24023437
-0.47167969
0.2109375
-0.36914062
0.25195312
-0.81152344
-0.38378906
-0.29882812
-0.10253906
-0.69726562
-0.43945312
-0.81152344
-0.40429688
-1.05175781
-0.77636719
-1.5
-0.890625
-0.58007812
0.29003906
-0.01171875
0.4921875
-0.24316406
0.06445312
-0.02636719
0.0
-0.79980469
-1.5
-1.5
-1.5
1.48242188
1.48242188
0.60351562
0.02050781
-0.92871094
-0.52148438
-0.33691406
-0.2109375
-0.82910156
-0.08496094
-0.78808594
-0.23144531
-0.93457031
-0.33984375
-0.5859375
-0.27832031
-0.73828125
-0.44824219
-0.73828125
-1.08105469
-1.5
-1.5
-1.5
-1.5
-1.5
-1.5
-1.5
-1.5
-0.77050781
1.36523438
1.48242188
1.48242188
1.48242188
1.48242188
1.48242188
1.48242188
1.48242188
1.48242188
1.48242188
1.47949219
0.91113281
1.24804688
0.796875
0.93164062
0.33984375
0.68261719
0.30761719
0.57128906
-0.09082031
1.39453125
-0.234375
-0.2109375
-0.36914062
0.64746094
-0.31054687
0.1171875
-0.07324219
0.31640625
-0.09667969
0.3984375
0.11132812
1.08398438
-0.4453125
-0.328125
0.00878906
0.17578125
-0.17578125
0.30761719
-0.24023437
0.11425781
-0.25195312
0.02050781
-0.2109375
0.20214844
-0.40429688
0.12890625
0.19628906
-0.12304688
-0.78222656
0.02050781
-0.48046875
0.20800781
0.47753906
-0.81445312
-1.29199219
-0.31640625
-0.65332031
0.41308594
-0.31347656
-0.01757812
0.29589844
0.24316406
0.0
0.2578125
0.22265625
0.16699219
-0.30761719
0.43359375
-0.57128906
-0.09960938
-0.19042969
-0.26367188
-0.57714844
0.06445312
0.20800781
0.86425781
0.43652344
0.66796875
0.05566406
0.45410156
-0.23144531
-0.5859375
-1.5
-1.5
-0.69140625
1.48242188
1.48242188
0.83203125
-0.45996094
-0.48925781
-0.69433594
-0.25195312
-0.73828125
-0.17578125
-0.69726562
-0.39550781
-0.87011719
-0.54199219
-1.25683594
-0.85546875
-1.25097656
-0.72949219
-1.47363281
-0.91699219
-1.35058594
-1.1015625
-1.5
-1.5
-1.5
-1.10742188
-1.5
-1.5
-1.5
-0.09082031
0.94628906
1.48242188
1.48242188
1.48242188
1.48242188
1.48242188
1.48242188
1.48242188
1.48242188
1.48242188
1.48242188
1.47949219
1.20410156
1.27734375
0.515625
0.82324219
0.38378906
0.77636719
0.1640625
0.57128906
0.51269531
0.43652344
-1.19824219
-0.24902344
0.00585937
-0.07910156
-0.88183594
0.48046875
-1.04003906
-0.87304688
-0.67089844
-0.31933594
-0.98144531
-0.37792969
-0.84960938
-0.25195312
-0.67089844
-0.29882812
-0.83789062
-0.60058594
-1.08984375
-0.18457031
-0.55664062
-0.328125
-0.07324219
-0.05859375
-0.80859375
1.01074219
-0.16699219
0.91699219
-0.1171875
0.703125
0.18457031
0.19335937
-0.01171875
0.36621094
-0.16113281
0.00878906
-0.16699219
0.18164062
-0.69433594
0.06445312
-0.6328125
-0.13476562
-0.87011719
-0.57714844
-1.13964844
-0.38964844
-0.60058594
-0.06445312
-0.82910156
-0.9140625
-1.08984375
-0.20507812
-0.00292969
0.94042969
0.27246094
0.49804688
0.11425781
0.21972656
-0.328125
-0.88476562
-1.5
-1.5
0.73828125
1.48242188
1.48242188
1.1953125
-0.41894531
-0.31933594
-0.72070312
0.02636719
-0.65332031
-0.05859375
-0.83496094
-0.4453125
-0.53320312
-0.046875
-0.57128906
-0.07324219
-0.70605469
-0.68554688
-1.3828125
-1.20996094
-1.5
-1.13378906
-1.5
-1.5
-1.5
-1.5
-1.5
-1.5
-1.5
-0.35449219
0.5390625
1.48242188
1.48242188
1.48242188
1.48242188
1.48242188
1.48242188
1.48242188
1.48242188
1.48242188
1.47949219
1.48242188
1.12207031
1.21289062
0.53027344
0.86425781
0.36914062
0.92578125
0.18457031
0.75292969
0.32519531
0.86425781
0.19921875
0.80273438
-0.13769531
0.58886719
-0.08789062
0.52441406
-0.00585937
0.52734375
-0.33105469
0.0
-0.76171875
-0.23730469
-0.82910156
-0.3984375
-0.80859375
-0.08789062
-0.89355469
-0.140625
-0.78808594
-0.27246094
-0.61523438
0.16699219
-0.30761719
0.19042969
-0.25488281
0.21972656
-0.328125
0.09667969
-0.58007812
-0.78222656
-1.5
-0.43652344
1.37695312
1.13378906
-1.5
-1.5
0.62402344
1.41796875
0.99609375
1.04296875
-0.37207031
0.09960938
-0.609375
0.28710938
-0.57128906
0.06445312
-0.18457031
0.69433594
0.09960938
-0.00585937
-0.43652344
0.20800781
-0.23730469
0.59472656
-0.40722656
-1.5
-1.5
-0.24023437
1.48242188
1.48242188
0.18457031
-0.80859375
-1.44433594
-0.5625
-1.3125
-0.9609375
-1.40625
-0.75878906
-1.5
-0.90234375
-1.5
-0.79394531
-1.01074219
-0.63574219
-1.23925781
-0.81738281
-1.34179688
-1.16894531
-1.5
-1.5
-1.5
-1.5
-1.5
-1.5
-1.5
-1.25976562
-0.52441406
0.94921875
1.48242188
1.48242188
1.48242188
1.48242188
1.48242188
1.48242188
1.48242188
1.48242188
1.48242188
1.48242188
1.23925781
1.47949219
0.9609375
1.29199219
0.62988281
1.34765625
0.22265625
0.76171875
0.25488281
0.53613281
0.19921875
0.87304688
0.33984375
0.74707031
0.07324219
0.89355469
0.19921875
0.79394531
0.41894531
0.52441406
0.02636719
0.74414062
-0.20800781
-0.39257812
-0.79394531
-0.43066406
-0.95507812
-0.11425781
-0.72949219
-0.31933594
-1.06933594
-0.2109375
-0.91992188
-0.421875
-0.96972656
-0.4921875
-1.17480469
-0.52734375
0.21972656
-0.29882812
-1.5
-0.95800781
-0.92285156
-0.33398437
-0.55371094
0.29589844
-0.48925781
0.29882812
-0.38671875
0.52148438
0.7265625
0.14355469
-0.17871094
0.44238281
0.22558594
0.50097656
0.26953125
1.48242188
0.08789062
0.38085938
0.02050781
0.60644531
0.28125
0.50390625
-1.5
-1.5
-1.5
1.48242188
1.48242188
0.63574219
-0.89355469
0.08789062
-0.890625
-0.19042969
-0.51855469
-0.07910156
-0.78222656
-0.07910156
-1.20410156
-0.17871094
-0.59472656
0.35449219
-0.30175781
0.38671875
-0.44238281
0.11425781
-1.05175781
-0.82617187
-1.5
-1.5
-1.5
-1.5
-1.5
-1.5
-1.5
-0.45410156
0.95800781
1.48242188
1.48242188
1.48242188
1.48242188
1.48242188
1.48242188
1.48242188
1.48242188
1.48242188
1.48242188
1.47949219
1.02832031
1.35644531
0.6328125
0.80566406
0.2578125
0.76464844
0.12304688
0.19921875
0.67089844
0.26074219
-0.95214844
-0.22851562
-0.67675781
0.18457031
-0.328125
0.22558594
-0.12597656
0.36035156
-0.3515625
0.59179687
0.36035156
0.5390625
0.03808594
1.03125
0.04980469
0.99609375
0.60058594
0.81738281
-0.08789062
0.66210937
0.11425781
0.09082031
-0.46875
-0.13769531
-0.65625
-0.07324219
-0.05273438
-0.16113281
-1.26855469
-0.609375
-0.95800781
-0.51855469
-0.77050781
-0.17871094
-0.890625
-0.45703125
-0.96386719
-0.25488281
-1.22167969
-0.61816406
-1.43261719
-0.78515625
-1.09863281
-0.27246094
-0.26367188
0.61523438
0.046875
0.43359375
-0.14648438
0.61523438
0.09082031
-1.078125
-1.5
-1.5
1.48242188
1.48242188
1.48242188
1.48242188
0.34570312
0.06738281
-0.10253906
0.42480469
-0.3984375
0.54492187
0.26660156
0.29003906
-0.68261719
-1.13671875
-0.71777344
0.15234375
-1.5
-0.51855469
-0.03808594
-0.65917969
-1.5
-1.5
-1.5
-1.5
-1.5
1.48242188
1.48242188
0.6796875
-0.79394531
1.02246094
-0.45117187
0.17871094
-1.0078125
-0.1875
1.48242188
-0.88183594
1.48242188
1.48242188
1.48242188
1.48242188
1.48242188
1.37402344
1.48242188
-1.5
1.48242188
-1.5
1.48242188
1.48242188
1.48242188
1.34472656
-0.18457031
-0.43945312
0.40722656
0.45410156
1.48242188
1.48242188
0.47460938
0.8203125
-0.05273438
0.36035156
-0.47460938
-0.140625
-0.77050781
-0.15527344
-1.0078125
-0.67382812
-1.5
-0.95800781
-0.89648437
-0.50683594
-1.2421875
-0.57421875
-1.24804688
-0.68847656
-1.35351562
-0.5859375
-0.6328125
-0.11425781
-0.94628906
-0.08496094
-0.68261719
-0.0703125
-0.77636719
-0.15234375
-0.61230469
-0.27246094
-0.5859375
0.36328125
-0.59179687
0.04980469
-0.56542969
0.13183594
-0.31933594
0.66796875
0.4921875
0.74121094
0.27539062
0.77929687
0.0
0.53613281
-0.01171875
-1.5
-1.5
-1.5
1.48242188
1.48242188
1.0078125
0.55957031
-0.59179687
-0.19921875
-0.52734375
0.02636719
-0.71484375
-0.02636719
-0.4921875
-0.41601562
-1.13378906
-0.38378906
-0.92285156
-0.40429688
-1.02832031
-0.62109375
-0.96679688
-0.76171875
-1.28027344
-0.88183594
-1.5
-1.5
-1.5
-1.5
-1.5
-1.5
-1.14550781
0.68554688
1.48242188
1.48242188
1.48242188
1.48242188
1.48242188
1.48242188
1.48242188
1.48242188
1.48242188
1.48242188
1.02832031
1.48242188
0.28417969
0.81445312
0.06152344
0.72949219
0.30175781
0.99316406
0.39257812
0.85546875
-0.09960938
0.34863281
0.10546875
0.79101562
-0.14941406
0.97558594
0.29882812
0.7734375
0.42773437
1.17480469
0.50390625
0.3515625
0.09082031
0.65039062
-0.05859375
0.43945312
-0.24609375
0.0234375
-1.3359375
-0.50683594
-1.18359375
-0.41015625
-0.97265625
-0.52734375
-1.18652344
-0.34277344
-0.85546875
-1.22753906
-1.23632812
-1.07519531
-1.5
-0.97851562
-1.40039062
-0.87597656
-1.01660156
0.03515625
-0.3046875
0.3046875
-0.31640625
0.15820312
-0.79980469
0.20800781
-1.5
-1.5
-1.5
1.48242188
1.48242188
1.48242188
-0.40429688
0.47460938
-1.05761719
-0.38671875
-0.90234375
-0.29882812
-1.03710938
-0.19628906
-0.9140625
-0.38671875
-0.76464844
-0.2109375
-0.73535156
-0.234375
-0.18457031
-1.23046875
-1.5
-1.16601562
-1.5
-1.5
-1.5
-1.5
-1.5
-1.5
-1.5
-0.65625
0.1640625
1.48242188
1.48242188
1.48242188
1.48242188
1.48242188
1.48242188
1.48242188
1.15136719
1.48242188
1.48242188
1.48242188
0.85839844
1.2890625
0.24316406
0.80566406
0.48925781
0.90820312
-1.5
-1.5
1.48242188
1.48242188
1.48242188
1.48242188
0.70605469
0.73535156
-0.45996094
0.44824219
-0.57421875
0.14941406
-0.1171875
1.05761719
0.59472656
0.84667969
-0.26367188
0.27246094
-0.34277344
0.07324219
-0.24609375
0.15527344
-0.28417969
0.20507812
-0.42480469
-0.17871094
-0.77636719
-0.10253906
-0.66210937
-0.03808594
-0.48925781
0.17285156
-0.47167969
-0.12304688
-0.58007812
-0.34570312
-0.5859375
0.25195312
-0.40722656
-0.140625
-0.92285156
-0.22558594
-0.91992188
0.36914062
0.13769531
0.33105469
-0.19042969
0.62988281
0.03515625
0.60351562
-0.45703125
-1.5
-1.5
-1.5
1.48242188
1.48242188
0.55664062
-0.24609375
-1.05175781
-0.21386719
-0.7734375
-0.29003906
-0.63574219
-0.06445312
-0.91699219
-0.19628906
-1.1015625
-0.29296875
-0.30761719
-0.00292969
-0.46582031
0.13183594
-0.23144531
-0.97265625
-1.5
-0.8671875
-1.5
-1.5
-1.5
-1.5
-1.5
-1.26855469
-0.36035156
0.45410156
1.36816406
1.48242188
1.48242188
1.48242188
1.48242188
1.48242188
1.48242188
1.48242188
1.48242188
1.48242188
0.95800781
1.45898437
0.72949219
0.87304688
0.140625
0.68847656
-0.12011719
0.66796875
0.21386719
0.19921875
-0.60351562
1.08398438
-0.96386719
-0.07617188
-0.67675781
-0.30175781
-0.796875
0.13769531
-0.65917969
0.00878906
-0.66796875
-0.29882812
-1.06933594
0.46582031
-1.11914062
-0.421875
-0.79394531
0.09960938
-0.55078125
0.23730469
-0.60058594
0.09082031
-0.4453125
0.11425781
-0.60351562
0.16992188
-0.83789062
0.05859375
-0.53320312
0.47460938
-0.375
-0.12597656
-0.08789062
0.515625
-0.53613281
0.19335937
-0.42773437
0.52441406
-0.69433594
-0.31640625
-0.52734375
0.62109375
-0.65332031
0.31347656
0.49804688
-0.28417969
-1.5
-0.35449219
-0.64453125
0.12304688
-0.26367188
1.31835938
0.52148438
1.48242188
0.09082031
0.44824219
0.20507812
0.68847656
-1.5
-1.5
-1.5
1.48242188
1.48242188
1.48242188
0.33691406
0.05566406
-0.81738281
0.14941406
-0.78808594
-0.08203125
-0.9140625
-0.27246094
-0.90234375
-0.22558594
-1.05761719
-0.12597656
-0.89648437
0.0703125
-0.92871094
-0.35449219
-1.05761719
-0.85253906
-1.5
-0.80566406
-1.5
-1.5
-1.5
-1.5
-1.5
-0.71191406
-0.20214844
1.16015625
1.40039062
1.48242188
1.48242188
1.48242188
1.48242188
1.48242188
1.48242188
1.48242188
1.48242188
1.48242188
1.48242188
1.36816406
-0.45703125
1.48242188
-0.99902344
-0.45410156
1.48242188
1.48242188
0.0
-1.5
-1.5
-1.5
1.48242188
1.48242188
1.48242188
-1.5
-1.5
1.48242188
1.48242188
1.48242188
0.890625
-0.06152344
-1.5
-1.5
1.48242188
1.48242188
0.46875
-1.5
-1.5
1.48242188
-1.5
-1.5
-1.5
1.02539062
1.48242188
0.46875
-1.5
-1.5
-0.81738281
-1.5
0.60644531
0.47167969
1.48242188
1.03710938
-1.5
0.04980469
0.2109375
-1.04003906
0.73242188
-0.31640625
0.48046875
-1.5
-1.5
0.22558594
1.48242188
1.48242188
-0.48046875
-1.5
0.0703125
-0.65625
-1.5
-0.0703125
-1.3359375
-0.9609375
-1.01953125
0.26660156
-0.28417969
-0.50683594
-1.05175781
-0.40429688
-0.33984375
0.43945312
-1.5
-1.5
-1.5
1.48242188
1.48242188
1.48242188
0.41894531
0.16699219
-0.57714844
0.39257812
-0.33984375
0.08789062
0.37207031
1.00195312
-0.56835938
0.50976562
-0.890625
0.04394531
-1.33300781
-0.43652344
-1.2421875
-0.6796875
-1.5
-1.01074219
-1.5
-1.5
-1.5
-1.5
-1.5
-1.5
-1.5
-0.67675781
0.02929688
1.48242188
1.48242188
1.48242188
1.48242188
1.48242188
1.16308594
1.48242188
1.20410156
1.36816406
0.64746094
1.0078125
0.29296875
0.99609375
0.29003906
0.70605469
0.11132812
0.4453125
-0.06445312
0.76757812
-0.13183594
0.76757812
-0.09375
0.75
0.11132812
1.02832031
-0.4921875
0.56835938
0.21679688
0.88769531
-0.15820312
0.99316406
0.52441406
0.50097656
-0.20507812
0.90820312
0.42480469
0.29882812
-0.44824219
0.44238281
0.00585937
0.21679688
-0.34570312
0.31933594
-0.34277344
-0.00585937
-0.52734375
-0.01171875
-0.64746094
0.27246094
-0.79394531
0.02636719
-0.24902344
-0.46289062
-1.36816406
0.140625
-0.37207031
-0.08203125
-0.83203125
0.05566406
-1.23339844
-0.38964844
-1.04882812
-0.20214844
-0.63574219
-0.07617188
-0.7265625
0.88769531
-0.28710938
0.40722656
0.19921875
0.23730469
-0.47460938
0.52734375
0.34863281
1.48242188
0.01171875
1.36523438
0.09375
1.16601562
-0.45703125
-0.53320312
-1.5
-1.5
-1.5
1.48242188
1.48242188
0.58300781
-0.73535156
-0.33984375
-1.12792969
-0.27539062
-1.03710938
-0.47753906
-1.24511719
-0.57421875
-1.41210938
-0.59472656
-1.07519531
-0.58886719
-1.19824219
-0.66796875
-1.45019531
-0.94335938
-1.5
-1.18066406
-1.5
-1.5
-1.5
-1.5
-1.5
-1.5
-1.5
-0.2578125
0.71191406
1.48242188
1.48242188
1.48242188
1.48242188
1.48242188
1.48242188
1.48242188
1.48242188
1.48242188
1.48242188
1.48242188
0.86132812
1.46191406
0.27539062
0.67089844
-0.375
0.01171875
-0.58300781
0.2578125
-0.45410156
0.30761719
-0.31347656
0.45703125
-0.04980469
0.6796875
-0.25488281
0.50683594
-0.24902344
0.3515625
-0.14941406
0.7265625
-0.32519531
0.5625
0.33398437
0.55371094
-0.1640625
0.69140625
0.05566406
0.88476562
0.08203125
0.59472656
-0.28710938
0.17578125
-0.41894531
0.47460938
-0.21972656
0.87597656
-0.38085938
0.81738281
-0.55957031
0.234375
-0.26660156
0.21679688
-0.796875
0.34863281
-0.30761719
0.21972656
-0.9375
-1.5
0.05566406
1.01074219
0.71777344
-0.00878906
-1.21289062
-0.52734375
-1.13378906
-0.12597656
0.2109375
0.54492187
-0.94921875
0.60351562
-0.45996094
-0.36914062
-1.5
-0.48632812
-1.5
-1.5
0.90820312
1.48242188
1.48242188
0.65039062
-0.65332031
-0.89648437
-0.77929687
-0.17871094
-1.16308594
-0.32519531
-0.9375
-0.33691406
-0.81738281
-0.60644531
-0.82910156
-0.91113281
-1.10449219
-0.43652344
-1.5
0.48925781
0.65625
-0.52148438
-1.5
-1.5
-1.5
-1.5
-1.5
-1.5
-1.35351562
-0.51855469
0.11425781
1.48242188
1.48242188
1.48242188
1.48242188
1.48242188
1.48242188
1.48242188
1.48242188
1.48242188
1.28027344
1.48242188
0.95800781
1.37988281
0.50390625
1.09277344
0.33398437
0.56542969
-0.02636719
0.609375
0.01171875
0.59472656
-0.10253906
0.70605469
-0.15234375
0.55078125
0.046875
0.65039062
0.04980469
0.42480469
-0.42480469
0.4453125
0.01464844
0.53027344
-0.09082031
0.68261719
0.13183594
1.32128906
-0.27539062
-0.421875
-0.79394531
0.45703125
-0.59179687
-0.03808594
-0.82324219
0.0234375
-0.66796875
0.55371094
-1.40625
-0.48925781
-0.90234375
-0.42773437
-1.11914062
-0.2578125
-1.28320312
-0.2109375
-0.4921875
0.29589844
-0.91992188
0.13476562
-0.1875
0.55371094
-0.48046875
0.91992188
1.0546875
1.48242188
0.62695312
1.44140625
0.36328125
0.92871094
-0.38378906
-1.5
-1.5
-0.74707031
1.48242188
1.48242188
0.04101562
0.03515625
-1.10742188
-0.31933594
-0.9140625
-0.3046875
-1.48535156
-0.41015625
-1.41796875
-0.46875
-1.00488281
-0.14355469
-0.43066406
-0.50683594
-1.1015625
-0.72070312
-1.5
-0.96972656
-1.5
-1.02539062
-1.5
-0.98730469
-1.5
-1.23339844
-1.37988281
-1.11621094
-0.20800781
-0.11132812
1.41796875
1.48242188
1.48242188
1.48242188
1.48242188
1.48242188
1.48242188
1.48242188
0.91699219
1.48242188
1.48242188
0.88476562
-0.62695312
-0.05566406
-0.72363281
0.31054687
-0.56542969
1.48242188
-1.5
-1.5
-1.5
-0.69140625
-1.25097656
-0.11132812
-0.80273438
-0.5390625
-0.94042969
-0.140625
-0.29589844
-0.82910156
-1.5
-1.265625
-1.5
-0.60058594
-1.29199219
-0.09667969
-0.52148438
0.31640625
-0.27539062
0.48632812
-0.22265625
0.40722656
-0.234375
0.45117187
0.05566406
0.890625
0.09667969
1.10449219
0.0703125
0.92578125
-0.13183594
0.79980469
-0.51855469
0.96386719
-0.58886719
-0.0703125
-0.32519531
0.0234375
-0.55078125
-0.19628906
-0.43652344
0.98144531
-0.09082031
0.81738281
-0.00292969
0.27832031
-0.09667969
1.2421875
-1.5
-1.5
-1.5
1.48242188
1.48242188
1.48242188
0.08789062
0.33105469
-0.79394531
-0.28710938
-0.6796875
-0.29003906
-1.06054687
0.12597656
-0.75
0.06738281
-0.75878906
0.02929688
0.03222656
-0.06445312
-0.82324219
0.65625
-0.39257812
-0.0703125
-1.06640625
-0.43652344
-1.5
-1.22167969
-1.5
-1.5
-1.5
-0.72949219
-0.05566406
1.48242188
1.48242188
1.48242188
1.48242188
1.48242188
1.48242188
1.48242188
1.48242188
1.37695312
0.36621094
1.1015625
0.13769531
1.08105469
0.45703125
0.796875
-0.02050781
0.68554688
-0.12597656
0.68847656
0.2578125
1.03125
0.25195312
0.41308594
0.01757812
0.87011719
0.30175781
-0.15527344
-0.33398437
0.609375
-0.19042969
0.48632812
-0.59765625
0.09082031
-0.66796875
-0.26953125
-0.92871094
0.25488281
-0.75
0.18457031
-0.78515625
0.00878906
0.0
-0.17578125
-0.97558594
-0.19628906
-0.83496094
0.04101562
-0.73242188
-0.27246094
-1.01953125
-0.40429688
-1.25683594
-0.5390625
-1.30957031
-0.26074219
-1.22753906
-0.44824219
-1.40039062
-0.69140625
-1.359375
-0.15820312
-0.51269531
0.44824219
-0.37792969
0.36328125
-0.53320312
0.45117187
-0.31054687
-1.5
-1.5
-1.5
1.48242188
1.48242188
1.48242188
0.82910156
-0.5625
0.17285156
-0.89941406
0.37792969
-1.29492187
-0.45996094
-0.89355469
0.03515625
-0.71777344
0.23144531
-0.1875
0.53027344
-0.97265625
-0.27246094
-1.08691406
-0.59472656
-1.40332031
-1.06347656
-1.5
-1.5
-1.5
-1.5
-1.5
-1.5
-1.5
0.66503906
1.33886719
1.48242188
1.48242188
1.48242188
1.48242188
1.48242188
1.48242188
1.48242188
1.48242188
1.48242188
1.31835938
1.48242188
0.94335938
1.39453125
0.55957031
1.48242188
0.09375
0.80273438
-0.02929688
1.02539062
-0.04980469
0.65332031
-0.56835938
0.55078125
-0.08496094
0.68554688
0.24316406
1.48242188
-0.0234375
0.2109375
-0.38671875
0.6796875
0.24316406
0.20800781
-0.41015625
0.76171875
0.12597656
0.75585938
-0.73828125
0.43066406
-0.59765625
0.10546875
-1.35644531
0.77050781
0.328125
1.37695312
-0.28417969
-0.00878906
-1.15429688
-0.46875
-1.06347656
-0.37207031
-1.16601562
-1.12792969
-1.46777344
-0.07324219
-1.46484375
-1.32128906
-1.5
-0.92578125
-1.06933594
0.16699219
-0.8671875
0.07910156
-0.99316406
-0.19921875
-0.890625
0.04101562
-1.5
-1.5
-1.5
1.48242188
1.48242188
1.48242188
-0.44824219
0.09667969
-1.32421875
-0.38378906
-0.74121094
-0.12890625
-0.9609375
0.14355469
-0.70019531
-0.13769531
-0.50683594
0.02050781
-0.78808594
0.01464844
-0.94335938
-0.08789062
-1.21289062
-0.38964844
-1.5
-1.5
-1.5
-1.5
-1.5
-1.5
-1.5
-0.48632812
-0.1171875
1.48242188
1.48242188
1.48242188
1.48242188
1.48242188
1.48242188
1.48242188
1.37109375
1.48242188
1.13085938
1.48242188
0.8671875
1.23339844
0.37792969
0.94042969
0.45410156
1.48242188
0.74707031
1.16308594
0.515625
1.22460937
0.83203125
1.15429688
-0.19628906
0.94042969
0.43652344
1.01953125
0.29882812
0.76464844
-0.01171875
0.57714844
0.21972656
0.52734375
0.02636719
0.02050781
-0.6796875
0.31640625
-0.51855469
-0.421875
-1.265625
-0.328125
-0.96972656
-0.23144531
-0.90527344
0.05859375
-0.70898437
-0.28710938
-0.75
0.19335937
0.2109375
0.17285156
-0.44238281
-0.046875
-0.62695312
0.48925781
-0.16699219
0.54492187
-0.24023437
0.34277344
-0.14355469
0.79980469
-0.00292969
0.11132812
-0.84960938
-0.07324219
0.03515625
0.48046875
-0.09960938
0.53320312
-0.44238281
0.42773437
-0.32226562
0.10546875
-1.5
-1.5
-1.5
0.39257812
1.48242188
1.48242188
-0.72363281
-0.19921875
-1.05761719
-0.046875
-0.60644531
-0.26074219
-0.99609375
-0.53320312
-1.06347656
-0.50683594
-1.125
-0.40722656
-0.26953125
-0.87597656
-1.5
-0.69726562
-1.5
-1.17480469
-1.5
-1.5
-1.5
-1.5
-1.5
-1.5
-1.5
-1.5
-1.31835938
0.890625
1.48242188
1.48242188
1.48242188
1.48242188
1.48242188
1.48242188
1.48242188
1.48242188
1.20996094
1.48242188
0.5859375
1.265625
0.3046875
1.15429688
0.48632812
0.95800781
0.05566406
1.453125
-0.02636719
0.30175781
-0.6328125
0.36328125
-0.50683594
0.62988281
0.01757812
0.54492187
0.22558594
0.95507812
0.17285156
0.89355469
-0.046875
0.82324219
0.13769531
0.7265625
-0.04101562
0.796875
0.20507812
0.58300781
-0.26953125
0.46289062
-0.21679688
0.31640625
-0.515625
0.42480469
-0.30175781
0.24902344
-0.84667969
0.07617188
-0.62988281
0.20800781
-0.62109375
0.33398437
-0.29003906
0.78515625
-0.94335938
-0.28417969
-0.83496094
0.11425781
-1.10449219
-0.16113281
-0.75585938
0.15234375
-0.51269531
-0.8671875
-0.99609375
-0.54199219
-0.8203125
0.74121094
-0.19628906
0.53613281
0.06445312
0.7734375
0.09667969
0.93164062
-1.5
-1.5
-1.5
1.48242188
1.48242188
1.48242188
0.66796875
0.90234375
0.27246094
0.42480469
-0.22851562
0.85546875
0.22265625
0.88183594
-0.18457031
0.67089844
-0.46875
0.26074219
-0.09960938
-0.39550781
-1.01074219
-0.19335937
-1.5
-1.05761719
-1.5
-1.5
-1.5
-1.5
-1.5
-1.5
-1.5
-1.06347656
-0.75292969
1.1484375
1.06347656
1.48242188
1.48242188
1.48242188
1.41503906
1.48242188
1.32128906
1.48242188
0.60351562
1.44433594
0.65917969
0.97265625
0.12597656
1.1015625
0.26074219
0.98144531
0.26660156
0.69726562
-0.24023437
0.08203125
-0.54199219
0.40429688
-0.140625
0.45117187
0.04980469
0.90820312
0.34863281
0.75
-0.03515625
0.50390625
-0.29003906
0.47167969
-0.39550781
0.30761719
-0.32519531
0.21386719
-0.57421875
0.06445312
-0.55664062
0.14941406
-0.50976562
0.01171875
-0.62402344
-0.00292969
-0.37207031
0.19335937
-0.75878906
-0.25488281
-0.88183594
-0.87597656
-1.08105469
-0.48046875
-1.19824219
-0.25488281
-0.8203125
-0.0703125
-0.40136719
0.58007812
0.05859375
0.76757812
0.10253906
0.92285156
0.45117187
0.76464844
0.27246094
0.94335938
0.06445312
0.66796875
0.234375
0.55957031
-0.01464844
0.08203125
-0.80859375
-0.05273438
-0.57128906
0.72949219
-0.12304688
0.3515625
-0.62109375
0.40429688
-0.83496094
0.703125
-1.5
-1.5
-1.5
1.48242188
1.48242188
0.75292969
-0.54199219
-0.13183594
-0.32226562
0.55078125
0.04101562
0.27832031
-0.45996094
0.33398437
-0.33984375
0.3515625
-0.1875
0.56542969
-0.08496094
0.61230469
-0.03515625
-0.51269531
-1.3828125
-0.80273438
-1.5
-1.2421875
-1.5
-1.5
-1.5
-1.5
-1.5
-1.5
-1.13964844
0.55957031
0.98144531
1.48242188
1.25390625
1.48242188
1.48242188
1.48242188
0.94921875
1.48242188
0.84082031
0.94921875
0.96386719
1.48242188
0.55957031
1.48242188
-0.5859375
0.41894531
0.21386719
0.9140625
0.47753906
0.87304688
0.17285156
0.85253906
0.26953125
0.95800781
0.19628906
0.51855469
0.22558594
0.59179687
-0.0703125
0.6796875
-0.1875
0.60058594
-0.11132812
0.421875
-0.046875
0.46582031
-0.10839844
0.61523438
-0.01171875
0.41601562
-0.51269531
0.12011719
-0.20214844
0.29882812
-0.33691406
0.31054687
-0.47460938
0.0703125
-0.49511719
0.02636719
-0.61523438
-0.01171875
-0.66796875
-0.36914062
-0.78222656
-0.00292969
-0.42480469
-0.09667969
-0.29882812
-0.11425781
-0.61523438
-0.18164062
-0.73828125
-0.12011719
-0.66503906
-0.30761719
-0.76757812
-0.02050781
-0.57714844
-0.20214844
-0.98144531
-0.10253906
-0.68261719
-0.24316406
-0.35742188
-0.53027344
-1.26855469
-0.12890625
-0.18164062
0.96386719
0.63867188
1.30371094
0.62695312
1.23046875
0.41601562
0.24609375
-1.5
-1.5
-0.68554688
1.48242188
1.48242188
1.48242188
0.57128906
0.53027344
0.23144531
0.44238281
-0.50097656
-0.03515625
-0.33398437
-0.38671875
-1.03710938
-0.46582031
-1.28320312
-0.65917969
-1.10742188
-1.08691406
-1.5
-1.35058594
-1.5
-1.5
-1.5
-1.5
-1.5
-1.5
-1.5
-1.5
-1.5
-0.59472656
-0.44824219
1.48242188
1.48242188
1.48242188
1.48242188
1.48242188
1.48242188
1.48242188
1.48242188
1.48242188
1.12207031
0.95800781
0.16113281
-0.94335938
1.48242188
1.48242188
1.48242188
1.48242188
0.35449219
0.65917969
0.27539062
0.8203125
0.41601562
0.70898437
-0.00292969
0.41601562
-0.06445312
0.36914062
-0.15234375
0.4453125
-0.19042969
0.4453125
0.07324219
0.54785156
-0.04101562
0.13476562
-0.16992188
-0.20800781
-0.65625
-0.43359375
-0.55078125
-0.28417969
-0.35449219
-0.26953125
-0.27539062
0.05859375
0.41601562
0.04394531
-0.45996094
-0.20800781
-0.48339844
-0.3046875
-0.68261719
0.02636719
-0.29589844
-0.04394531
-0.12304688
0.34863281
-0.12597656
0.12304688
-0.14941406
0.15234375
-0.09375
0.234375
0.19921875
-0.30761719
-1.03417969
-0.04394531
-0.12890625
-0.12011719
-0.57714844
0.04394531
-0.81445312
-0.69726562
-0.94042969
0.36035156
0.12011719
0.51269531
0.29882812
0.47167969
-0.05273438
0.40136719
-1.5
-1.5
-1.5
1.48242188
1.48242188
1.48242188
0.7265625
0.47753906
-0.234375
0.64453125
-0.39257812
0.01464844
-0.81152344
-0.18164062
-0.8203125
-0.45703125
-0.92578125
-0.31933594
-1.09277344
-0.29882812
-1.1015625
-0.94042969
-1.5
-0.79101562
-1.5
-1.5
-1.5
-1.5
-1.5
-1.5
-1.5
-1.19824219
0.06152344
0.15820312
1.48242188
1.48242188
1.41210938
1.48242188
1.48242188
1.48242188
1.48242188
1.48242188
1.48242188
1.48242188
1.30078125
1.48242188
0.98144531
0.67675781
0.54199219
0.87597656
0.5625
1.06054687
0.40722656
0.77636719
-0.15234375
0.28417969
0.03808594
0.328125
-0.14941406
0.28417969
-0.140625
0.26660156
-0.27246094
0.00292969
-0.046875
-0.06152344
-0.50683594
-0.18164062
-0.67089844
-0.47460938
-0.35449219
-0.21972656
-0.34277344
-0.04394531
-0.26074219
0.34863281
-0.79980469
-0.24902344
-0.52441406
-0.60058594
-1.09570312
-0.56835938
-0.48046875
-0.56542969
-0.87304688
-0.2578125
-0.39550781
0.10546875
-0.33984375
0.1171875
-0.09960938
0.25488281
-0.16699219
-0.12890625
-0.06152344
0.140625
-0.609375
-0.04394531
-0.41601562
-0.140625
-0.91699219
-0.61523438
-0.68847656
-0.35449219
-0.3984375
0.72070312
0.609375
1.20703125
0.32226562
0.60058594
0.6328125
0.65039062
-1.5
-1.5
-1.5
1.48242188
1.48242188
1.48242188
-0.01464844
0.09960938
-0.16699219
0.21386719
-0.03222656
0.23144531
-0.609375
0.29003906
0.02050781
-0.05566406
-0.38378906
0.09960938
-0.41308594
-0.17285156
-0.45410156
-0.1640625
-1.32128906
-1.29785156
-1.5
-1.5
-1.5
-1.5
-1.5
-1.5
-1.5
-1.5
-0.49511719
1.29199219
1.48242188
1.48242188
1.48242188
1.48242188
1.48242188
1.48242188
1.48242188
1.48242188
1.14550781
1.48242188
0.65039062
0.36621094
0.18164062
0.17871094
0.13769531
0.00585937
-0.09082031
0.12011719
-0.14941406
0.03222656
0.02929688
0.05859375
0.0703125
0.55664062
-0.046875
-0.01171875
-0.09375
0.26953125
-0.21386719
0.23144531
-0.18457031
0.046875
-0.14941406
0.07910156
0.140625
0.26660156
0.0234375
0.13769531
-0.03808594
0.06738281
-0.01171875
-0.05566406
-0.06152344
0.0
-0.1171875
-0.20507812
-0.4921875
-0.08496094
-0.44824219
-0.703125
-0.37207031
-0.83496094
-1.01660156
-0.5390625
0.13769531
0.40136719
0.17578125
0.39550781
0.140625
0.09375
-0.04394531
-1.5
-1.5
-1.5
0.90820312
1.48242188
1.48242188
0.52734375
-0.85839844
-0.79980469
-0.61230469
-0.22851562
-0.55371094
-0.36328125
-0.27832031
-0.66210937
-0.54785156
-0.49804688
-0.53320312
-0.38085938
-0.5625
-0.34863281
-0.796875
-0.86132812
-1.03125
-1.08105469
-1.5
-1.5
-1.5
-1.5
-1.5
-1.5
-1.5
-0.58886719
1.20117188
1.48242188
1.48242188
1.48242188
1.48242188
1.48242188
1.48242188
1.48242188
1.48242188
1.48242188
1.48242188
1.48242188
1.23046875
1.48242188
1.08984375
1.48242188
0.41894531
-0.09960938
0.00878906
0.08203125
-0.02050781
0.08203125
-0.21386719
-0.01171875
-0.34277344
-0.23144531
-0.62695312
-0.08496094
-0.28125
-0.3046875
-0.50683594
-0.19335937
-0.30761719
-0.22851562
-0.03515625
-0.02636719
-0.09960938
-0.05859375
-0.57421875
-0.41015625
-0.15234375
-0.37207031
-0.82324219
-0.3984375
-0.5859375
-0.31933594
0.16699219
0.75878906
0.44824219
0.57128906
0.53027344
0.28710938
-0.08496094
-0.15234375
-1.5
-1.5
-1.5
1.48242188
1.48242188
1.06640625
-0.13183594
-0.68261719
-0.56835938
-0.3046875
-0.43359375
-0.328125
-0.63867188
-0.46875
-0.45410156
-0.31640625
-0.76464844
-0.55957031
-0.66796875
-0.75292969
-0.98730469
-0.95507812
-1.25976562
-1.5
-1.5
-1.5
-1.5
-1.5
-1.5
-1.5
-1.5
-0.59179687
0.65625
1.48242188
1.48242188
1.48242188
1.48242188
1.48242188
1.48242188
1.48242188
1.48242188
1.48242188
1.45019531
1.48242188
1.16601562
0.88769531
0.64160156
0.5859375
0.50683594
0.26074219
0.34863281
0.14941406
0.07910156
0.00585937
0.00585937
0.08789062
0.04394531
0.00585937
0.21386719
0.17871094
-0.39257812
-0.27246094
-0.22265625
-0.18164062
-0.25488281
-0.1171875
-0.06152344
-0.10839844
-0.06152344
-0.01464844
-0.22265625
-0.3984375
-0.328125
-0.25488281
-0.31640625
-0.14941406
-0.25195312
-0.12597656
-0.01757812
0.20507812
0.06738281
0.20800781
-0.03515625
0.14355469
0.1171875
0.16992188
0.11132812
-0.11132812
0.09960938
-0.18164062
-0.43652344
-0.43945312
-0.38671875
-0.58300781
-0.48925781
0.55078125
0.52734375
0.27246094
0.27832031
0.09082031
0.2109375
-0.03808594
-1.5
-1.5
-1.5
1.48242188
1.48242188
1.48242188
0.26367188
-0.2109375
-0.71777344
-0.58007812
-0.57421875
-0.63574219
-0.48925781
-0.53613281
-0.53320312
-0.52148438
-0.54199219
-0.57128906
-0.54785156
-0.74707031
-0.703125
-0.75292969
-0.87011719
-1.20703125
-1.5
-1.5
-1.5
-1.5
-1.5
-1.5
-1.5
-1.21875
-0.04980469
1.03710938
1.48242188
1.48242188
1.48242188
1.48242188
1.48242188
1.48242188
1.48242188
1.48242188
1.48242188
1.04589844
1.13085938
0.98730469
0.97851562
0.50683594
0.48046875
0.375
0.41894531
0.29003906
0.32519531
0.08789062
0.24902344
0.12890625
0.15234375
-0.00585937
0.06445312
-0.06445312
0.046875
-0.01757812
0.01464844
-0.04101562
0.03515625
0.00292969
-0.04101562
-0.24902344
-0.20214844
-0.30175781
-0.13476562
-0.09960938
-0.18164062
-0.20800781
-0.09667969
-0.16113281
-0.13769531
-0.20214844
-0.00585937
-0.20800781
-0.19042969
-0.2578125
-0.13183594
-0.26367188
-0.00585937
-0.1640625
-0.20214844
-0.25195312
0.01464844
-0.20507812
-0.12890625
-0.19921875
0.02050781
-0.0703125
-0.02050781
-0.046875
-0.10253906
-0.3046875
-0.29589844
-0.20214844
0.00585937
-0.14355469
-0.08789062
-0.10546875
-0.01464844
-0.26953125
0.01464844
-0.29589844
-0.12890625
-0.19628906
0.01171875
-0.13769531
0.06738281
-0.06152344
0.00878906
-0.47753906
-0.23144531
-0.15820312
-0.24023437
-0.19042969
-0.33984375
-0.45996094
-0.46875
-0.00585937
0.609375
0.27246094
0.37207031
0.39550781
0.33105469
0.13769531
0.28710938
-1.5
-1.5
-1.5
1.48242188
1.48242188
1.48242188
0.42480469
-0.14355469
-0.48046875
-0.20214844
-0.44238281
-0.51269531
-0.52148438
-0.28710938
-0.33105469
-0.27539062
-0.32226562
-0.28125
-0.3984375
-0.56542969
-0.70605469
-0.65332031
-1.00195312
-0.99023437
-1.5
-1.5
-1.5
-1.5
-1.5
-1.5
-1.5
-1.25390625
-0.48339844
0.95214844
1.48242188
1.48242188
1.48242188
1.48242188
1.48242188
1.48242188
1.48242188
1.48242188
1.48242188
1.48242188
1.16015625
1.12792969
0.58886719
0.703125
0.40722656
0.45996094
0.24316406
0.39257812
0.24902344
0.41015625
-0.00292969
0.19628906
0.11132812
0.07617188
-0.2109375
-0.00292969
-0.29589844
0.08789062
-0.02050781
0.08789062
-0.37207031
-0.06445312
-0.28710938
-0.06738281
-0.1875
0.15820312
-0.17578125
0.0703125
-0.28417969
-0.02929688
-0.17871094
0.05566406
-0.27246094
-0.01171875
-0.3046875
0.00292969
-0.20214844
-0.00585937
-0.33105469
-0.1640625
-0.234375
0.09960938
-0.29882812
-0.03808594
-0.16992188
-0.02636719
-0.375
-0.02636719
-0.26074219
0.02050781
-0.14648438
-0.06738281
-0.16699219
0.1640625
-0.08496094
-0.08203125
-0.51855469
-0.13476562
-0.24316406
-0.23730469
-0.47753906
-0.421875
-0.71777344
-0.32519531
-0.15527344
0.70605469
0.44238281
0.63867188
0.33984375
0.47460938
0.09667969
0.43066406
-1.5
-1.5
-1.5
1.48242188
1.48242188
1.48242188
0.21386719
0.04394531
-0.59472656
-0.01171875
-0.37207031
-0.2109375
-0.515625
-0.44238281
-0.65039062
-0.25195312
-0.46582031
-0.1875
-0.45410156
-0.34863281
-0.89355469
-0.70898437
-1.30078125
-1.09863281
-1.5
-1.5
-1.5
-1.5
-1.5
-1.5
-1.5
-1.5
-0.12890625
1.3359375
1.48242188
1.48242188
1.48242188
1.48242188
1.48242188
1.48242188
1.48242188
1.48242188
1.48242188
1.48242188
1.48242188
1.42382812
0.73242188
0.79101562
0.66210937
0.58300781
0.08789062
0.62402344
-0.21972656
0.20800781
-0.07324219
0.04394531
-0.16699219
0.15820312
-0.33398437
0.00878906
-0.30761719
-0.20800781
-0.15527344
-0.06152344
-0.20800781
-0.26074219
-0.421875
0.03515625
-0.36914062
-0.24609375
-0.28417969
0.01171875
-0.41308594
-0.046875
-0.24902344
-0.00878906
-0.17871094
-0.15527344
-0.43652344
0.06445312
-0.36328125
0.26074219
-0.47753906
-0.140625
-0.45117187
0.19335937
-0.38964844
-0.02636719
-0.34570312
0.21386719
-0.39550781
-0.21386719
-0.35449219
-0.12304688
-0.65625
-0.15234375
-0.55078125
-0.1875
-0.65039062
0.37792969
0.33691406
0.34570312
0.04980469
0.39550781
0.09960938
0.11425781
-0.57421875
-1.5
-1.5
-1.5
1.48242188
1.48242188
0.59179687
-0.05566406
-0.91113281
-0.36328125
-0.49511719
-0.234375
-0.62109375
-0.33105469
-0.60351562
-0.10546875
-0.73242188
-0.27832031
-0.68847656
-0.33398437
-0.61523438
-0.66796875
-1.00488281
-0.81445312
-1.5
-1.5
-1.5
-1.5
-1.5
-1.5
-1.5
-1.5
-0.90820312
0.55078125
1.48242188
1.48242188
1.48242188
1.48242188
1.48242188
1.48242188
1.48242188
1.48242188
1.48242188
1.48242188
1.32421875
1.47949219
0.94042969
1.06054687
0.54492187
0.81445312
0.22851562
0.22265625
-0.16699219
0.39550781
-0.22265625
0.1640625
-0.375
0.04980469
-0.37792969
0.046875
-0.13183594
0.08203125
-0.20800781
0.02050781
-0.48339844
0.08789062
-0.30761719
0.09375
-0.21679688
0.24902344
-0.24902344
0.03515625
-0.35449219
0.25195312
-0.50683594
-0.03515625
-0.28417969
-0.07324219
-0.36035156
0.10546875
-0.60058594
0.14941406
-0.27832031
0.08789062
-0.34277344
0.01464844
-0.22558594
0.0703125
-0.33398437
0.12011719
-0.48339844
0.01757812
-0.19042969
-0.0234375
-0.56542969
-0.26074219
-0.64746094
-0.12890625
-0.32226562
0.55957031
0.17285156
0.71191406
0.05859375
0.72363281
-0.14648438
0.34863281
-1.5
-1.5
-1.5
1.48242188
1.48242188
1.48242188
0.08789062
-0.09960938
-0.68554688
-0.07324219
-0.3046875
-0.27539062
-0.72363281
-0.19921875
-0.65625
-0.30761719
-0.70605469
-0.06738281
-0.47460938
-0.09667969
-0.92578125
-0.67675781
-1.14257812
-1.03417969
-1.5
-1.5
-1.5
-1.5
-1.5
-1.5
-1.5
-0.99316406
-0.1875
1.48242188
1.48242188
1.48242188
1.48242188
1.48242188
1.48242188
1.48242188
1.48242188
1.48242188
1.4765625
1.17480469
0.76757812
1.16308594
0.5390625
0.8671875
0.05273438
0.56835938
0.04394531
0.23144531
-0.19335937
0.41894531
-0.03515625
0.34570312
-0.34570312
0.14941406
-0.33984375
0.12890625
-0.27832031
0.07617188
-0.3984375
0.10839844
-0.26074219
0.046875
-0.43652344
0.12597656
-0.36328125
0.12304688
-0.60058594
0.17285156
-0.47167969
-0.10546875
-0.54492187
0.12304688
-0.38671875
0.11132812
-0.43066406
-0.08496094
-0.54492187
0.15527344
-0.28125
-0.04980469
-0.34277344
-0.10253906
-0.43652344
0.11425781
-0.36328125
0.21972656
-0.38671875
0.08203125
-0.45703125
0.16992188
-0.421875
0.14648438
-0.32519531
-0.04101562
-0.59179687
0.00878906
-0.41894531
-0.27539062
-0.54785156
-0.2578125
-0.71191406
-0.11132812
-0.15234375
0.71191406
0.33691406
0.77050781
0.19628906
0.49511719
-0.21679688
0.30175781
-1.5
-1.5
-1.5
1.48242188
1.48242188
1.48242188
-0.03808594
-0.29589844
-0.76171875
-0.17871094
-0.54785156
-0.13769531
-0.515625
-0.05859375
-0.68847656
-0.1171875
-0.62988281
-0.21679688
-0.73828125
-0.24316406
-1.01074219
-0.50976562
-1.28320312
-1.04589844
-1.5
-1.5
-1.5
-1.5
-1.5
-1.5
-1.5
-0.93164062
-0.26074219
1.48242188
1.48242188
1.48242188
1.48242188
1.48242188
1.48242188
1.48242188
1.48242188
1.48242188
1.48242188
1.48242188
0.70605469
1.42089844
0.77929687
0.79394531
0.00585937
0.67382812
0.06738281
0.63574219
-0.13769531
0.49511719
-0.12304688
0.26660156
-0.26953125
0.23144531
-0.30761719
0.24023437
-0.1875
0.26660156
-0.27832031
0.30761719
-0.33398437
0.36328125
-0.15820312
0.234375
-0.42480469
0.22558594
-0.3046875
0.17871094
-0.26367188
0.18164062
-0.43066406
0.23730469
-0.328125
0.24316406
-0.22851562
0.37792969
-0.24316406
0.34277344
-0.27539062
0.28125
-0.24023437
0.31640625
-0.37792969
0.27539062
-0.31640625
0.19335937
-0.44238281
0.24316406
-0.41015625
0.10253906
-0.55664062
0.17285156
-0.41015625
0.07324219
-0.67675781
-0.09667969
-0.46582031
0.05273438
-0.53320312
0.19628906
-0.31933594
-0.140625
-0.50976562
-0.0234375
-0.75585938
0.10253906
-0.87890625
-0.42773437
-0.86425781
0.09667969
0.22851562
0.79980469
0.09082031
0.5390625
0.00878906
0.65332031
-0.14648438
-1.5
-1.5
-1.5
1.48242188
1.48242188
1.48242188
0.75585938
-0.73535156
-0.32519531
-0.80566406
-0.20800781
-0.79101562
-0.01171875
-0.64160156
-0.12011719
-0.84667969
-0.13476562
-0.79394531
-0.23144531
-0.89941406
-0.3046875
-1.02246094
-0.63867188
-1.26855469
-1.11914062
-1.5
-1.5
-1.5
-1.5
-1.5
-1.5
-1.5
-0.04980469
0.70019531
1.48242188
1.48242188
1.48242188
1.48242188
1.48242188
1.48242188
1.48242188
1.48242188
1.48242188
0.96972656
1.48242188
0.83789062
1.16601562
0.44238281
1.03125
0.22265625
0.55371094
-0.15820312
0.55371094
-0.19628906
0.43945312
-0.20214844
0.20507812
-0.46289062
0.15820312
-0.34863281
-0.13476562
-0.65917969
0.1640625
-0.5625
0.046875
-0.6328125
0.08496094
-0.53027344
0.13769531
-0.38085938
0.26660156
-0.3984375
0.11425781
-0.26660156
0.41015625
-0.05859375
0.06738281
-0.65332031
0.39257812
-0.22558594
0.33984375
-0.3984375
0.28710938
-0.50390625
0.13476562
-0.4921875
0.19042969
-0.47753906
0.36621094
-0.23730469
0.27539062
-0.58007812
0.38671875
-0.421875
0.29296875
-0.28125
0.40429688
-0.29296875
0.33105469
-0.67089844
0.26367188
-0.13476562
-0.046875
-0.57128906
-0.10839844
-0.70019531
-0.21679688
-0.47460938
1.01953125
0.18457031
0.67675781
0.140625
0.54492187
-0.11132812
0.45410156
-1.5
-1.5
-1.5
1.48242188
1.48242188
1.48242188
-0.1171875
-0.07324219
-0.97851562
0.10253906
-0.68261719
-0.04101562
-0.86132812
-0.09375
-0.82324219
-0.24609375
-0.80273438
-0.28125
-0.82910156
-0.38964844
-0.99023437
-0.515625
-1.45898437
-1.04003906
-1.5
-1.5
-1.5
-1.5
-1.5
-1.5
-1.5
-0.97265625
-0.4453125
1.47949219
1.48242188
1.48242188
1.48242188
1.48242188
1.48242188
1.48242188
1.48242188
1.48242188
1.34179688
1.48242188
0.89941406
1.36230469
0.6796875
0.97265625
0.12011719
0.70605469
-0.03222656
0.45996094
-0.16113281
0.24023437
-0.35449219
0.25195312
-0.52734375
0.33691406
-0.45410156
0.29882812
-0.36035156
0.421875
-0.35449219
0.45703125
-0.29296875
0.34863281
-0.47167969
0.28417969
-0.48632812
0.1171875
-0.59179687
0.07617188
-0.53613281
0.1171875
-0.37792969
0.06152344
-0.62109375
0.17285156
-0.47460938
0.22851562
-0.3984375
0.06738281
-0.59472656
0.33105469
-0.45117187
0.27832031
-0.33105469
0.07617188
-0.61816406
0.11425781
-0.60058594
0.18164062
-0.64453125
0.09375
-0.77929687
0.03808594
-0.61523438
0.49511719
0.12597656
0.77929687
0.22851562
0.69433594
-0.05566406
0.49804688
-0.10546875
-1.5
-1.5
-1.5
1.48242188
1.48242188
1.47949219
0.55957031
-0.68261719
-0.26074219
-0.6796875
-0.13769531
-0.73535156
-0.15820312
-1.0078125
-0.15527344
-0.85546875
-0.07617188
-0.87597656
-0.046875
-0.9375
-0.22265625
-1.04589844
-0.51269531
-1.5
-1.08984375
-1.5
-1.5
-1.5
-1.5
-1.5
-1.5
-1.5
0.05566406
0.78808594
1.48242188
1.48242188
1.48242188
1.48242188
1.48242188
1.48242188
1.48242188
1.48242188
1.48242188
1.22460937
1.48242188
0.70019531
1.1484375
0.44238281
0.91992188
0.03515625
0.60058594
-0.29296875
0.3984375
-0.35742188
0.25195312
-0.33398437
0.328125
-0.29296875
0.40136719
-0.33398437
0.30175781
-0.32519531
0.43359375
-0.43359375
0.43066406
-0.38378906
0.27832031
-0.47460938
0.19042969
-0.35449219
0.25488281
-0.65917969
0.09667969
-0.62109375
0.14941406
-0.62109375
0.19921875
-0.47167969
0.02050781
-0.7734375
0.13769531
-0.61816406
0.17578125
-0.5390625
0.12304688
-0.52441406
0.140625
-0.45410156
0.28417969
-0.55078125
0.34570312
-0.50097656
0.19042969
-0.39550781
0.38378906
-0.43945312
0.15234375
-0.421875
0.03515625
-0.55371094
0.24609375
-0.36621094
-0.05273438
-0.85546875
0.18164062
-1.04882812
-0.22265625
-0.13476562
0.82617187
0.0703125
0.75
-0.0234375
0.52148438
-0.3984375
-0.91113281
-1.5
-1.5
1.18945312
1.48242188
1.48242188
1.02539062
-0.52148438
-0.20214844
-0.66796875
0.03515625
-0.89355469
-0.03515625
-0.69726562
0.00292969
-0.59765625
-0.22558594
-1.16308594
-0.16992188
-0.93457031
-0.52441406
-1.13964844
-0.58300781
-1.359375
-1.15136719
-1.5
-1.5
-1.5
-1.5
-1.5
-1.5
-1.5
-0.4921875
-0.05859375
1.48242188
1.48242188
1.48242188
1.48242188
1.48242188
1.48242188
1.48242188
1.48242188
1.48242188
1.02539062
1.48242188
0.5859375
1.35351562
0.28125
0.81445312
-0.046875
0.64453125
-0.14648438
0.75585938
-0.05566406
0.50683594
-0.40136719
0.39550781
-0.44238281
0.18457031
-0.46582031
0.421875
-0.30761719
0.42773437
-0.35742188
0.3515625
-0.41894531
0.34570312
-0.34277344
0.27832031
-0.37792969
0.40722656
-0.36328125
0.30175781
-0.33691406
0.28710938
-0.46289062
0.19042969
-0.52734375
0.2578125
-0.46875
0.25488281
-0.55078125
0.13183594
-0.71484375
0.09667969
-0.5625
0.16699219
-0.56835938
0.29882812
-0.45410156
0.12890625
-0.48339844
0.41015625
-0.53027344
0.24023437
-0.40722656
0.15527344
-0.69433594
0.1640625
-0.76464844
0.02636719
-0.8203125
-0.15820312
-0.97265625
-0.31347656
-0.703125
0.91992188
0.2109375
0.96386719
0.06738281
0.65625
-0.16699219
0.15527344
-1.5
-1.5
-1.5
1.48242188
1.48242188
1.48242188
0.28417969
0.3515625
-1.06054687
-0.29296875
-1.10742188
-0.43359375
-1.25976562
-0.21679688
-1.14257812
-0.09960938
-1.22460937
-0.23144531
-0.9609375
-0.65039062
-0.62109375
-0.5859375
-0.15234375
-1.13085938
0.16113281
-1.5
-1.5
-1.5
-1.5
-1.5
1.48242188
1.48242188
-1.5
-1.5
-0.51269531
1.48242188
1.48242188
1.48242188
1.48242188
1.48242188
1.48242188
1.48242188
0.55664062
1.48242188
1.48242188
1.48242188
-1.18359375
-0.31640625
-1.5
1.48242188
1.48242188
1.48242188
1.48242188
-1.5
-1.5
-1.5
-1.5
0.35742188
-1.5
1.06640625
-1.5
1.30371094
-1.5
1.48242188
-1.5
1.47949219
-1.5
1.48242188
-0.9609375
1.43554688
1.48242188
1.48242188
-1.5
1.48242188
-1.5
-1.5
-1.5
-0.08496094
-1.5
1.47949219
-1.5
1.48242188
-1.5
1.48242188
-1.5
-0.03515625
-1.5
1.03710938
-1.10449219
1.48242188
-1.5
1.48242188
-1.19824219
1.48242188
-1.2421875
1.48242188
-0.71484375
1.48242188
-1.359375
1.48242188
-1.5
-1.5
-1.5
1.48242188
1.48242188
1.48242188
-1.5
1.3125
-1.5
1.48242188
-1.5
0.84082031
-1.5
1.48242188
-1.5
1.37695312
-1.5
1.47949219
-1.5
1.15429688
-1.5
0.4453125
-1.5
0.26660156
-1.5
-0.42773437
-1.5
-1.5
-1.5
-0.74414062
-1.5
1.16601562
-0.85546875
1.48242188
-0.07324219
1.48242188
1.48242188
1.48242188
1.48242188
1.48242188
1.48242188
1.48242188
-1.5
1.48242188
-0.38085938
1.48242188
1.48242188
1.48242188
-1.5
1.13964844
-1.5
1.48242188
-1.5
1.48242188
0.52148438
1.48242188
-1.5
0.09082031
-1.5
1.48242188
-1.5
1.48242188
1.48242188
1.08691406
1.48242188
-1.5
-1.5
-0.7265625
-0.6328125
1.0078125
1.48242188
0.97558594
-1.5
0.10839844
-0.35449219
0.05859375
0.09375
0.46875
0.08203125
0.48632812
-0.14941406
0.61230469
-0.1875
1.07519531
-0.3984375
-0.00292969
1.48242188
-0.80273438
-1.5
-1.5
-1.5
-0.88183594
-1.5
-0.48925781
-1.24804688
-0.07324219
-0.1171875
0.48339844
-1.5
0.58886719
0.29882812
1.48242188
-1.5
-1.5
-1.5
-1.5
1.48242188
1.48242188
1.48242188
1.48242188
-0.0234375
-1.08105469
-1.5
1.48242188
-0.3984375
0.43652344
-0.35742188
0.75
-0.32519531
-0.15234375
-1.5
0.44238281
-1.16894531
1.48242188
-1.5
-0.984375
-1.5
-1.16308594
-1.5
-1.078125
-1.5
-1.5
-1.5
-1.5
-1.5
-0.33984375
1.48242188
1.48242188
1.48242188
1.48242188
1.48242188
1.48242188
0.02929688
0.72070312
1.06054687
1.1015625
-0.41894531
0.59179687
-0.52148438
0.984375
0.08203125
0.75585938
0.046875
1.48242188
1.48242188
-1.5
-1.08398438
0.56542969
0.49804688
1.48242188
-1.46777344
1.23925781
1.48242188
-1.5
-1.5
-0.49511719
-0.10546875
1.31542969
1.47949219
-0.9140625
-0.7265625
1.48242188
0.16699219
-1.11035156
-1.5
-0.08789062
-0.34277344
1.05175781
0.46289062
0.94628906
-0.94335938
-1.04296875
-0.77050781
1.48242188
-1.5
-1.5
-1.5
-0.66796875
-1.17773438
-0.40136719
-0.40136719
0.76757812
-0.19335937
0.515625
0.62109375
1.48242188
-1.16601562
-0.55078125
-1.5
-1.5
-1.5
1.48242188
1.48242188
1.48242188
-0.28710938
-0.50976562
-0.96386719
-0.91699219
-1.5
-0.47167969
-0.79980469
-1.47949219
-0.99316406
1.48242188
1.48242188
-0.51269531
-1.5
1.48242188
-1.5
0.96386719
-1.18066406
-1.5
-1.5
-1.5
-1.5
-1.5
-1.5
1.48242188
-1.5
-1.5
0.72070312
0.94921875
1.48242188
1.48242188
-1.5
0.33105469
1.48242188
1.48242188
1.45019531
1.48242188
0.48632812
1.48242188
1.48242188
-0.15234375
-1.5
0.18457031
1.17480469
1.48242188
1.48242188
-0.62109375
-0.05859375
-1.5
-0.39550781
-1.20703125
-1.5
0.05859375
-1.34472656
-1.12792969
0.41308594
1.48242188
-0.67089844
-0.75878906
0.87011719
-1.2421875
-0.12011719
0.5390625
-0.06738281
0.93164062
1.47949219
1.48242188
-1.5
-1.5
-0.35742188
-1.5
-1.5
-1.5
1.48242188
1.48242188
-0.84082031
-0.54199219
-1.5
-1.5
-0.99609375
1.48242188
1.48242188
1.48242188
-0.84667969
-1.5
-1.5
1.48242188
-1.5
1.1953125
-1.18652344
1.48242188
-0.83789062
0.703125
-1.5
0.37207031
1.48242188
-1.5
-1.5
1.48242188
-1.02539062
1.48242188
-1.5
0.71191406
-1.5
-1.5
1.22753906
1.04003906
-1.5
1.48242188
-1.5
1.48242188
-1.5
1.48242188
-1.5
-1.5
-1.5
-1.5
1.06054687
1.48242188
0.14648438
1.48242188
-1.00195312
1.18945312
-0.82617187
1.48242188
-0.52441406
1.48242188
1.48242188
1.48242188
0.52734375
1.48242188
-0.34277344
0.92578125
0.47167969
1.48242188
-0.62402344
1.48242188
-0.83496094
1.48242188
-1.5
1.20410156
1.48242188
1.48242188
-1.5
1.14550781
-1.5
1.48242188
-1.5
0.11425781
-1.5
1.48242188
-1.5
1.3125
-1.5
1.27734375
-1.5
1.48242188
0.29589844
0.18457031
-1.5
1.48242188
-1.5
0.73535156
-1.5
0.7265625
-1.21875
1.48242188
-1.5
1.48242188
-1.39453125
1.48242188
1.48242188
1.48242188
-1.5
-1.25097656
-1.5
-1.5
1.06347656
1.48242188
1.48242188
1.48242188
-1.5
-1.19824219
-1.5
-0.98144531
-1.5
1.09570312
-0.36621094
1.48242188
-1.5
-1.5
-1.5
1.48242188
-1.5
0.64160156
-0.16992188
-0.19628906
-1.5
-1.5
-1.5
1.48242188
-1.5
-1.5
-1.5
-0.03515625
-1.5
1.20117188
1.48242188
1.48242188
-1.5
1.48242188
1.078125
1.48242188
1.48242188
1.48242188
-0.12304688
1.48242188
-0.50976562
1.48242188
1.48242188
1.48242188
-0.24316406
0.68847656
0.45703125
1.48242188
-0.53027344
1.48242188
-1.5
0.56542969
-1.5
0.30761719
-0.26660156
1.265625
-0.24316406
1.48242188
-0.4453125
1.48242188
-1.5
1.48242188
-1.5
1.48242188
-1.16015625
1.48242188
-0.82617187
0.04394531
-1.5
-0.29003906
-1.5
1.48242188
-1.5
1.02246094
-1.5
0.87304688
-1.5
-0.03515625
0.04101562
1.48242188
-0.1171875
0.69726562
-1.5
1.48242188
-1.5
-1.41210938
-1.5
-0.65039062
1.48242188
1.48242188
-1.01660156
1.48242188
-1.5
-0.29589844
-1.5
1.48242188
-0.52441406
1.48242188
-1.5
-1.5
-1.5
-0.98730469
-1.5
1.48242188
-0.82617187
1.48242188
-1.5
-1.5
-1.5
-0.5859375
-1.5
-0.8671875
-1.5
-1.44433594
-1.5
-1.5
-1.5
1.48242188
1.48242188
1.48242188
1.48242188
1.48242188
1.48242188
1.48242188
-1.5
1.48242188
-0.48339844
1.48242188
-0.49804688
1.48242188
1.02832031
1.48242188
-1.5
1.48242188
-1.13964844
1.48242188
0.86425781
1.48242188
0.50390625
-0.30761719
-1.5
-1.5
-0.14941406
1.48242188
-1.5
1.48242188
-1.5
1.48242188
-0.96972656
1.27441406
-1.5
1.48242188
-1.5
1.48242188
-1.5
-0.90234375
-1.46484375
1.48242188
-1.5
1.48242188
-1.36816406
1.48242188
-1.5
1.48242188
1.48242188
-1.5
-1.5
1.48242188
-1.5
-1.35058594
-1.5
1.48242188
-0.70605469
1.48242188
-1.17773438
0.13183594
-1.5
-1.5
0.77929687
1.48242188
-1.5
1.48242188
-1.5
-1.26269531
-1.5
1.48242188
-1.5
1.48242188
-1.5
-0.7734375
-1.5
1.48242188
-1.0546875
-1.5
-0.69433594
1.48242188
-1.5
0.87597656
-1.5
1.48242188
-0.72070312
-1.38867188
-1.5
1.48242188
-1.5
1.48242188
-1.5
1.48242188
-1.5
-1.5
-1.5
1.48242188
-1.5
1.48242188
-1.17480469
1.48242188
-1.5
0.19042969
-1.5
1.48242188
-1.5
-0.94628906
-1.5
1.48242188
-0.09667969
1.48242188
-1.5
-0.38671875
-0.30761719
1.48242188
-1.10449219
0.07324219
-1.5
1.48242188
-1.5
1.38574219
1.48242188
1.48242188
-1.5
0.94042969
-1.5
1.28320312
-1.5
1.48242188
-1.05175781
1.48242188
-1.5
-1.0078125
-1.5
-1.5
-1.5
1.48242188
-1.5
1.48242188
0.70898437
1.48242188
-1.5
1.48242188
1.48242188
1.48242188
-0.09082031
1.48242188
-1.5
-0.5859375
1.48242188
1.48242188
-1.5
0.46289062
-1.5
1.48242188
1.48242188
1.48242188
-1.5
0.57128906
1.48242188
1.48242188
-1.17773438
-1.5
-1.5
0.99609375
1.48242188
1.48242188
-1.5
1.48242188
-0.87011719
1.48242188
-1.5
0.3046875
1.48242188
1.48242188
-1.5
1.48242188
-1.5
1.48242188
-0.28417969
1.48242188
-0.17285156
1.48242188
-1.5
1.20410156
-1.5
0.94335938
-1.5
1.48242188
-1.5
1.48242188
-1.5
1.48242188
-1.5
1.48242188
-1.5
1.48242188
-0.55664062
1.48242188
-1.5
0.72070312
-1.5
1.48242188
-1.5
1.48242188
0.45410156
0.75292969
-1.5
0.59765625
-1.5
-0.73535156
-1.5
1.48242188
-1.5
1.48242188
-0.47167969
1.48242188
-1.5
1.48242188
-1.5
1.48242188
-1.5
-0.29296875
-1.5
-1.5
1.453125
1.48242188
0.43066406
1.48242188
-1.5
1.48242188
0.48339844
1.48242188
-1.5
1.48242188
-1.5
1.48242188
-1.5
1.48242188
-1.5
0.72070312
-1.5
0.89648437
-1.5
1.48242188
-1.5
0.40136719
-1.5
0.31640625
-1.5
-0.07324219
-1.5
-0.48925781
-1.5
1.48242188
-1.5
1.48242188
1.48242188
1.48242188
-1.31542969
1.48242188
1.48242188
1.48242188
-0.63574219
1.48242188
0.19335937
1.48242188
-1.5
1.48242188
1.48242188
1.48242188
-1.23632812
1.48242188
-1.5
1.48242188
-1.5
0.25195312
-1.5
1.48242188
-1.5
1.30078125
-0.29296875
1.48242188
-1.5
-0.15234375
-1.5
1.48242188
-1.5
1.48242188
-1.5
1.48242188
-1.5
1.48242188
-1.5
0.9140625
-1.5
1.48242188
-1.5
-0.38085938
-1.15429688
1.48242188
-1.5
1.48242188
1.48242188
1.48242188
-1.5
1.39746094
-1.5
-0.74121094
-1.5
1.48242188
-1.1953125
0.02050781
-1.5
1.30078125
-0.50097656
-1.04589844
-1.5
1.48242188
-1.5
0.32226562
0.19628906
0.00585937
1.32714844
1.48242188
-1.5
1.48242188
1.48242188
1.48242188
-1.5
-1.5
-0.40429688
-1.5
1.48242188
1.48242188
1.48242188
-1.5
-1.5
-1.01367188
-1.5
0.66796875
-1.5
1.48242188
-1.08105469
0.65625
0.08203125
1.48242188
-0.52441406
-0.1171875
-1.5
1.48242188
-0.99316406
-1.5
-1.5
-0.26074219
-1.5
1.04882812
-1.5
-1.5
-1.5
-1.5
-1.5
0.4921875
-1.5
1.48242188
-0.99902344
1.48242188
0.09375
1.48242188
1.48242188
1.48242188
0.26953125
1.48242188
-0.39550781
1.48242188
0.03515625
1.48242188
-1.5
1.48242188
1.42675781
1.48242188
1.48242188
1.48242188
-1.5
-0.81445312
-1.5
1.48242188
-1.5
1.48242188
-1.5
1.48242188
-1.5
0.92578125
-1.5
0.46875
-1.5
0.01464844
-0.53613281
1.48242188
0.31054687
1.48242188
-1.5
0.73828125
-1.5
1.48242188
-1.5
-0.50976562
-1.5
1.48242188
-0.59765625
1.48242188
-1.5
0.06445312
-1.13085938
1.48242188
-1.5
1.00195312
-0.63867188
1.04296875
-1.15429688
1.48242188
-1.5
0.97851562
-1.5
1.48242188
-0.63574219
-1.5
-1.5
1.48242188
-1.5
0.88476562
-0.20214844
1.48242188
-1.11621094
0.36035156
-1.5
1.48242188
0.08203125
-1.11621094
-1.5
-1.5
1.48242188
1.48242188
-1.5
1.48242188
-0.25488281
1.04296875
-1.5
0.33105469
-1.5
1.06054687
-1.5
0.63574219
-0.06445312
1.48242188
-1.5
0.99023437
-1.5
-0.19921875
-1.5
1.11914062
-1.5
0.24902344
-1.5
-1.5
-1.5
-1.47070312
-1.5
-0.703125
-1.5
1.07226562
-0.38378906
1.48242188
1.48242188
1.48242188
0.97558594
1.48242188
-0.27246094
1.48242188
1.48242188
1.48242188
-0.6796875
1.125
0.34863281
1.48242188
-1.5
1.48242188
-1.02539062
0.64746094
-0.33105469
1.48242188
-1.5
-0.71191406
0.87890625
1.48242188
-0.64160156
0.75585938
-1.5
-1.5
1.48242188
1.48242188
0.39550781
0.80859375
-1.5
0.64746094
-1.5
0.99609375
-1.5
0.05566406
-1.5
1.48242188
-1.5
1.48242188
-1.15722656
1.48242188
-0.06152344
1.48242188
-1.5
-0.04394531
-1.5
0.41894531
-1.5
-1.5
0.68847656
1.48242188
0.00878906
1.48242188
-0.12890625
0.71777344
-1.5
1.48242188
-1.5
-0.07324219
-1.5
1.48242188
-1.5
0.75
-1.17480469
0.26367188
-1.5
-0.89941406
0.58300781
1.48242188
-0.65332031
0.65039062
-0.92871094
1.48242188
-1.5
-0.43652344
-1.5
-1.5
-1.5
1.48242188
1.48242188
1.48242188
-1.5
-1.48828125
-1.5
1.48242188
-1.08105469
-0.1171875
-1.5
1.48242188
-1.5
0.75
-1.5
-1.39746094
-0.74121094
1.05761719
-1.5
0.89941406
-1.5
-0.32519531
-1.5
-1.5
-1.5
-0.07617188
-1.5
-1.17480469
-1.5
-0.42773437
-1.5
1.48242188
1.47949219
1.48242188
1.48242188
1.48242188
-0.12304688
1.48242188
1.47949219
1.48242188
0.17285156
1.48242188
1.18359375
0.07617188
0.18164062
1.48242188
-0.31640625
1.48242188
0.23144531
1.48242188
-0.6328125
0.86132812
-0.19628906
-0.89355469
-1.5
1.48242188
-0.40722656
1.48242188
-0.1875
1.48242188
-1.05175781
0.25195312
-0.609375
0.80859375
-1.5
-1.16015625
-1.5
1.48242188
-0.89355469
0.10546875
-0.3515625
1.15722656
-1.06054687
0.62109375
-1.5
0.83789062
-0.6796875
0.62402344
-1.5
0.22265625
-1.5
0.47460938
-1.5
1.48242188
-0.26953125
0.95214844
-1.5
1.0546875
-1.5
0.57128906
-1.5
-1.5
0.48046875
1.48242188
-0.01171875
1.10742188
-1.05175781
0.01757812
-1.5
0.19921875
-1.5
0.81152344
-0.28417969
1.00195312
-0.08203125
-0.12890625
1.01074219
-1.1015625
-0.36035156
0.1171875
-1.1484375
-1.30957031
1.20996094
1.48242188
0.8671875
-0.5625
-1.5
-1.29199219
-1.5
0.42773437
-1.5
-1.5
-0.93164062
1.48242188
-0.75585938
-0.09667969
-1.5
1.48242188
-0.65917969
0.5390625
-1.5
-0.19335937
-1.5
-1.5
-1.5
0.22851562
-1.5
-1.5
-1.5
-1.5
-1.5
-0.00878906
-0.50683594
1.48242188
1.48242188
1.48242188
1.48242188
1.48242188
1.13378906
1.48242188
1.39746094
-0.06445312
1.48242188
1.48242188
1.47949219
1.11035156
0.07910156
1.48242188
0.55957031
0.8671875
0.14941406
0.85839844
-0.8203125
0.74707031
-1.5
-0.85546875
1.48242188
0.55957031
-0.24023437
1.48242188
-0.89648437
0.29589844
-0.57714844
0.36035156
-1.5
0.28417969
-0.08496094
1.48242188
-0.66796875
-1.5
-0.41601562
1.48242188
0.83203125
0.64160156
-0.38964844
-1.28027344
-0.05566406
0.84960938
-1.5
-0.41601562
1.48242188
0.34570312
-0.94042969
-0.36621094
-0.73535156
-1.5
1.47949219
1.48242188
0.21386719
0.05566406
-0.75878906
-0.33105469
-0.74414062
-0.43359375
-1.5
0.88769531
0.29003906
0.58886719
0.52441406
0.56835938
-1.05175781
0.79980469
0.09082031
0.40429688
-0.30175781
0.07324219
-1.5
-1.5
-1.5
1.48242188
1.48242188
0.99316406
0.36914062
-0.0234375
-0.86132812
-0.55371094
-1.02246094
-0.28710938
-0.60351562
-0.57421875
-0.92578125
-0.609375
-0.7734375
-0.04394531
-1.06347656
-0.45703125
-0.73828125
0.57128906
-1.5
-1.49707031
-0.64746094
-0.71191406
-1.5
-1.5
-1.5
-1.5
-1.5
-0.14355469
0.22558594
1.00195312
1.48242188
1.48242188
1.48242188
1.48242188
1.48242188
1.48242188
1.4765625
1.02832031
1.48242188
1.48242188
1.37988281
1.48242188
0.94628906
0.53613281
-0.26953125
0.73828125
0.02050781
1.47949219
0.41015625
0.30175781
-0.41894531
0.47460938
0.17871094
-0.02636719
-0.00878906
-0.24609375
-0.79101562
0.234375
0.61230469
0.140625
0.05859375
0.08203125
-0.66503906
-0.19628906
-0.08203125
-0.83496094
0.03808594
0.36914062
-0.36328125
-0.1875
0.07617188
-0.60644531
-0.80859375
0.62988281
0.27539062
-0.29003906
-0.41601562
-0.55078125
0.34277344
0.59765625
-0.02050781
-0.31347656
-1.5
0.01757812
0.55371094
-0.02636719
-0.36328125
-1.19824219
-1.5
0.45703125
0.23730469
0.17578125
0.46875
0.57128906
0.55078125
0.08496094
-0.56835938
-0.77050781
-1.5
-1.5
-1.5
1.48242188
1.48242188
0.46875
0.42773437
0.30175781
-0.08496094
-1.45019531
-0.82910156
-0.83203125
0.02050781
1.47949219
-0.28125
-1.5
-0.36914062
-0.14355469
-0.55664062
-0.37207031
-1.5
-1.5
-0.72070312
-0.82910156
-1.5
-1.5
-1.5
-1.5
-1.5
-1.5
-1.5
-1.5
-0.87597656
0.94335938
1.48242188
1.48242188
1.48242188
1.48242188
1.48242188
1.48242188
1.48242188
1.48242188
1.48242188
1.48242188
1.40917969
1.48242188
0.63867188
0.09667969
0.68554688
-0.82324219
0.90234375
1.48242188
1.359375
-0.8671875
-0.68261719
-0.40136719
0.0
-0.7734375
-0.74707031
1.48242188
0.57128906
0.04101562
0.08789062
-0.17871094
0.34863281
-0.30175781
-1.5
0.82617187
1.04003906
0.62695312
0.1875
-0.28710938
0.39550781
-0.91699219
-0.41308594
-0.39257812
-0.984375
-1.49707031
0.92285156
-0.42480469
0.24023437
0.77636719
0.57421875
-0.50390625
0.03222656
-1.34472656
-0.60351562
0.02929688
1.18945312
0.14355469
0.01757812
-0.70898437
1.22753906
-1.14257812
-0.88476562
-1.21289062
0.57128906
-1.5
-1.5
-0.08789062
-0.14941406
0.08203125
1.05175781
-0.36035156
0.29296875
-0.03222656
0.40722656
-0.98730469
1.21289062
0.41308594
-1.5
-1.5
-1.5
1.48242188
1.48242188
1.48242188
0.50976562
-1.5
-0.82324219
-1.06347656
-1.02539062
-0.31054687
1.48242188
-0.74414062
-1.5
-0.421875
-0.31640625
-1.5
-0.48925781
-1.5
1.48242188
0.67089844
-1.16894531
-0.87890625
-1.16894531
-1.5
-1.5
-1.5
-1.5
-0.54785156
0.0234375
-1.5
-1.5
0.43066406
1.48242188
-0.77929687
1.48242188
1.48242188
1.48242188
0.33691406
1.48242188
1.48242188
1.48242188
0.91699219
1.48242188
1.48242188
-0.29296875
-0.26367188
-0.609375
-1.02246094
1.48242188
1.48242188
0.47460938
0.1875
-0.11425781
-1.5
0.54199219
-0.11132812
1.48242188
-0.71191406
-1.5
1.453125
1.48242188
-0.27539062
-1.05175781
-1.5
-0.66503906
0.05273438
1.48242188
-0.24609375
1.02539062
-0.89941406
-1.02832031
0.8671875
-0.90527344
-0.13476562
0.33691406
-0.76464844
0.55078125
-0.19921875
1.21582031
-1.5
-1.5
0.8203125
0.77050781
-1.5
-0.81152344
0.31933594
1.48242188
-1.5
-0.22851562
-0.40722656
0.88183594
-1.29199219
-1.5
0.515625
1.15429688
-1.17773438
0.09082031
-1.42675781
0.38671875
-0.0234375
1.48242188
-1.5
1.48242188
0.09082031
-1.5
-1.5
-1.5
-1.5
1.48242188
1.48242188
1.48242188
-0.17871094
0.35742188
-1.5
-1.5
-1.5
0.29296875
-0.5859375
-0.14941406
0.30175781
1.17773438
-1.39746094
-0.47753906
-1.5
1.48242188
-1.16308594
-1.5
-0.49511719
-0.69433594
-1.5
-0.0234375
-1.37402344
-1.5
-1.5
-1.5
-1.5
-0.43066406
-0.40429688
1.48242188
1.48242188
1.48242188
1.48242188
-1.11328125
1.48242188
1.48242188
-1.5
1.48242188
1.48242188
1.48242188
-0.92578125
1.48242188
1.48242188
1.48242188
-0.3984375
1.03125
-0.5625
1.48242188
-1.5
-1.5
-1.21875
1.48242188
0.42480469
0.99609375
-1.33886719
0.65039062
-1.5
0.34277344
-1.26269531
0.8671875
-1.02246094
1.48242188
1.48242188
-1.5
-0.55078125
1.12207031
-1.5
-1.5
0.18457031
0.703125
-1.5
1.48242188
-0.14941406
0.59472656
-0.95800781
0.234375
-1.5
1.32421875
0.42480469
1.48242188
-1.5
0.87011719
-1.5
1.34179688
-1.19238281
1.10742188
-1.5
0.35742188
-1.46191406
0.05273438
-1.19824219
0.50390625
-1.35644531
-1.5
0.89941406
1.48242188
-1.5
1.09570312
-1.5
0.03808594
-1.5
-0.890625
-1.5
1.48242188
1.48242188
1.48242188
-0.43945312
0.5625
-0.9609375
0.79101562
-1.5
1.06054687
-1.5
-0.49804688
-1.5
1.30664062
0.47167969
1.04003906
-1.5
0.51855469
-1.5
-1.07226562
-1.5
1.48242188
0.29296875
-0.15234375
-1.5
-1.5
-1.5
-1.5
-1.5
0.55371094
-1.29492187
1.48242188
1.48242188
1.48242188
0.79101562
1.48242188
1.48242188
1.48242188
1.48242188
1.23046875
0.42480469
1.48242188
0.29882812
1.48242188
0.31640625
1.48242188
-0.5390625
1.04882812
-0.86132812
1.48242188
-0.31933594
0.80566406
-1.5
-1.5
-1.5
1.48242188
-1.32714844
1.10742188
-0.03222656
1.48242188
-1.5
1.02832031
-1.08105469
-0.6796875
-0.62109375
-0.44824219
-1.09863281
1.48242188
-0.6796875
-0.375
-1.5
1.48242188
-0.36328125
1.41796875
-1.5
0.22851562
-0.87890625
0.83496094
-1.5
1.04589844
-0.07324219
0.41015625
-1.18945312
0.12890625
-0.74414062
1.06933594
-1.29199219
0.62402344
-0.9140625
-0.50097656
-1.5
1.48242188
-1.5
-0.56835938
1.04296875
1.45605469
-1.20703125
1.48242188
-1.47949219
0.38671875
1.1015625
1.27734375
0.10253906
-1.5
-1.5
-1.5
1.48242188
1.48242188
-0.00878906
1.48242188
-1.5
-0.14648438
-1.5
1.45019531
-0.78808594
-1.5
-1.5
1.48242188
-0.64746094
1.20996094
-1.14257812
0.07324219
-1.5
1.4296875
-1.5
0.14648438
-1.5
-1.5
0.46875
0.31347656
-1.5
-1.5
-1.5
-1.5
0.44824219
1.48242188
0.93457031
1.48242188
1.48242188
1.48242188
-0.26367188
1.48242188
0.64746094
1.48242188
1.48242188
1.48242188
-1.09277344
1.48242188
-1.4296875
1.48242188
0.33105469
0.98144531
-0.31054687
0.94042969
-0.31054687
1.48242188
-1.5
0.05566406
0.02050781
-1.14257812
1.41796875
1.48242188
-0.36328125
1.48242188
-0.64160156
-1.5
-0.18457031
1.48242188
-1.5
1.48242188
-0.81152344
1.32714844
-1.5
-1.5
-1.0546875
0.36914062
-1.5
1.48242188
-1.5
1.48242188
-1.5
-1.5
-1.5
1.48242188
0.67089844
1.45898437
-1.5
1.48242188
-0.84375
0.12890625
0.07617188
1.48242188
-1.5
-1.5
-1.5
1.48242188
1.48242188
1.48242188
0.14648438
-0.26074219
-1.5
0.71484375
-0.72363281
0.8671875
-0.5859375
0.24316406
-1.5
0.35449219
-1.14257812
1.48242188
-1.5
-1.5
-1.5
1.48242188
-1.20703125
-0.80273438
-1.5
0.2578125
-1.5
-1.5
-1.5
-1.37109375
-1.5
-0.99316406
-1.18359375
1.48242188
1.48242188
1.48242188
1.48242188
1.48242188
1.48242188
1.48242188
-1.18359375
1.48242188
1.48242188
1.48242188
-0.38964844
1.48242188
-1.3125
1.48242188
-0.13183594
0.05859375
-1.25683594
1.48242188
-0.10546875
1.32128906
-1.5
1.06933594
-1.23046875
0.75878906
-0.32226562
1.11035156
-0.68261719
0.84667969
-1.5
0.42480469
-1.5
-0.23730469
-1.5
1.12792969
-1.5
1.09277344
0.22265625
1.48242188
-1.5
0.62695312
-0.68261719
1.48242188
-0.04101562
-1.5
-1.5
-1.5
1.48242188
1.48242188
1.48242188
1.35351562
-1.5
1.23925781
-1.5
1.39160156
-1.5
-0.48925781
-1.5
1.48242188
-0.78222656
0.61816406
-1.5
-0.66796875
-1.5
-0.12890625
-1.5
1.48242188
-1.5
-0.10253906
-1.5
-1.5
-1.5
-1.5
-1.5
1.21875
-1.5
1.48242188
0.74414062
1.48242188
1.21582031
1.48242188
1.48242188
1.48242188
1.48242188
1.48242188
-0.19921875
1.48242188
-0.54785156
0.7265625
-1.34472656
1.47949219
-1.10742188
0.48925781
-1.30078125
0.80273438
0.14355469
1.48242188
-0.56835938
1.1015625
-1.5
1.48242188
-1.41796875
-1.5
-1.5
1.48242188
-0.31640625
1.46777344
-1.5
1.48242188
-1.5
-1.17773438
-0.50683594
1.48242188
-1.5
1.23339844
-1.37109375
1.0078125
-1.5
-0.9609375
-0.50976562
1.48242188
-1.5
1.08398438
-1.5
1.48242188
-1.5
1.48242188
0.35449219
1.48242188
-1.34765625
0.50683594
-1.5
-1.5
-1.5
1.48242188
1.48242188
1.48242188
0.76464844
-0.31347656
-1.5
0.51269531
-1.5
1.0078125
-0.609375
0.39550781
-1.5
0.03808594
-1.5
1.48242188
-1.5
1.07226562
-1.5
1.31835938
-1.5
-1.5
-1.5
0.60058594
-1.5
0.34277344
-1.5
-1.5
-1.5
-0.43652344
-1.5
1.48242188
1.48242188
1.48242188
0.11132812
1.48242188
1.48242188
1.48242188
1.4765625
1.48242188
0.9140625
1.48242188
-1.44433594
-0.55371094
1.48242188
1.48242188
0.00585937
1.48242188
0.09667969
1.18652344
-1.5
-0.0234375
-1.29199219
0.60644531
-1.5
1.48242188
-0.22265625
1.48242188
-0.15527344
0.31640625
-1.171875
-0.73242188
-1.453125
0.46582031
0.05273438
1.48242188
-0.6796875
-0.0703125
-1.5
-0.375
-1.5
1.48242188
-0.90527344
1.41796875
-1.08105469
0.72949219
-1.5
0.26660156
-1.5
1.39453125
-0.36328125
0.50097656
-0.56542969
1.34472656
-1.36230469
0.5625
-1.5
1.03417969
-1.5
-1.5
-0.86132812
1.48242188
0.99023437
1.48242188
-1.5
0.05859375
-1.5
-1.5
-0.45703125
0.94335938
-0.97851562
1.48242188
-1.5
-1.5
-0.60351562
1.48242188
-0.65917969
1.48242188
0.26660156
0.31640625
-1.47949219
1.48242188
-1.5
-1.5
-1.5
1.48242188
0.83789062
1.48242188
1.15429688
1.13671875
-1.5
1.48242188
-1.16308594
-0.19042969
-1.5
-0.19335937
-0.73242188
-0.50683594
-1.18652344
1.48242188
-1.5
0.15820312
0.84375
0.4453125
-1.5
-1.5
-1.12792969
-0.10546875
-1.5
-0.72363281
-1.5
-1.16601562
-1.5
0.75292969
-0.45996094
0.92578125
1.48242188
1.48242188
1.48242188
1.48242188
1.2890625
1.48242188
1.20410156
1.48242188
1.22167969
1.48242188
-0.01757812
1.48242188
-1.41210938
0.26953125
-1.08984375
1.48242188
-0.22558594
1.48242188
0.04394531
1.06054687
-1.31542969
0.99609375
-1.5
-0.53613281
-1.5
1.48242188
-1.45605469
0.45703125
-0.70605469
1.48242188
-1.5
0.29003906
-1.06933594
1.48242188
-1.27148437
0.1171875
-0.45703125
1.03710938
-1.5
0.41308594
-1.16308594
1.04882812
-0.62402344
1.25097656
-1.22753906
0.76171875
-0.72363281
-0.02050781
-1.44140625
0.91699219
-1.02832031
0.93457031
-1.42382812
1.32128906
-1.02246094
0.00585937
-0.28417969
1.16015625
-1.5
1.48242188
-1.20117188
-0.02050781
-1.36523438
-0.046875
-1.5
1.48242188
-1.00195312
0.74414062
-1.5
0.46582031
-1.5
1.27734375
-1.16601562
1.48242188
-0.34863281
1.48242188
-0.90527344
1.48242188
-0.96679688
-0.99609375
-1.5
-1.5
0.3046875
1.48242188
0.55664062
1.48242188
-0.87304688
0.70019531
-1.41503906
-0.31347656
-1.5
1.48242188
-1.5
1.40917969
-0.09375
0.68847656
-1.5
0.86132812
-1.5
-0.23144531
-1.5
0.11425781
0.6796875
0.51855469
-1.5
-1.5
-1.5
-1.5
-1.5
-0.77050781
-1.5
1.125
0.03222656
1.48242188
1.4765625
1.48242188
0.77050781
1.48242188
0.99316406
1.48242188
1.48242188
1.48242188
0.06445312
1.48242188
-1.265625
1.48242188
-0.41015625
1.48242188
-1.5
1.48242188
-1.49707031
1.09277344
-0.33105469
1.24511719
-1.5
0.98144531
-1.47949219
0.08203125
-0.45410156
1.05761719
-0.94335938
1.13964844
-1.5
1.40917969
-0.46875
0.89648437
-1.4765625
1.48242188
-0.55664062
1.13671875
-1.5
-0.13769531
-0.515625
1.11328125
-1.5
1.265625
-0.9609375
1.48242188
-0.41601562
1.40039062
-1.04882812
1.36523438
-1.4765625
0.49804688
-1.45019531
0.77050781
-1.5
0.02050781
0.50390625
1.48242188
-1.5
0.59472656
-0.234375
0.29003906
-1.5
0.97265625
-1.5
1.47949219
-1.47363281
0.3984375
-1.5
0.97265625
-1.5
1.48242188
-1.5
1.359375
0.2578125
1.48242188
-1.5
1.11328125
-0.79394531
-1.5
-1.5
-1.5
1.48242188
1.48242188
1.04003906
-0.13769531
-1.5
1.48242188
-0.796875
1.35351562
-1.5
1.48242188
-1.21875
-1.5
-1.5
1.48242188
-0.02636719
1.46484375
-1.5
-0.77636719
-1.5
0.20507812
-1.5
-0.74121094
-0.32226562
-0.3046875
-1.5
-1.5
-1.5
-1.5
-1.5
0.81445312
0.16992188
1.48242188
1.48242188
1.48242188
1.48242188
1.48242188
0.20507812
1.48242188
1.48242188
1.48242188
0.43945312
1.48242188
0.25195312
1.48242188
-0.54199219
0.75
-1.5
1.48242188
-1.09277344
-0.03515625
1.38867188
1.48242188
-1.5
1.48242188
-1.5
0.88476562
1.48242188
-0.48339844
0.11132812
1.48242188
-0.84375
1.48242188
-1.1015625
0.54199219
-1.5
0.6328125
-1.5
-0.65625
-1.5
1.48242188
0.24609375
0.55371094
0.08789062
1.48242188
-1.5
-0.81738281
-0.27832031
1.33007812
-1.26855469
0.52441406
-1.5
-0.09375
-1.5
0.19628906
0.94335938
1.48242188
-0.91992188
1.30664062
-1.5
-0.91699219
-1.5
1.40917969
-1.44140625
1.23925781
-0.3515625
1.48242188
-1.45898437
-0.47460938
-1.5
1.171875
-1.125
0.37207031
-1.5
1.48242188
-0.76464844
0.84960938
-0.81152344
1.48242188
-1.36816406
-0.33105469
-0.38085938
-1.5
-1.5
-1.5
1.48242188
1.48242188
0.80273438
1.48242188
-1.5
-0.07324219
-1.30371094
0.33105469
-1.5
0.29882812
-1.5
1.48242188
-1.16308594
1.03710938
-1.5
-0.80566406
-1.5
0.68847656
-1.5
-0.71484375
-1.5
1.02246094
-1.5
-1.5
-1.5
-1.5
-1.5
-0.19921875
-1.5
-1.5
1.48242188
1.48242188
1.48242188
1.48242188
0.890625
1.48242188
1.48242188
1.48242188
1.48242188
1.48242188
0.84667969
1.48242188
-0.63574219
-0.7734375
-0.06738281
1.48242188
-0.61230469
0.37207031
-0.24023437
1.20703125
-0.44238281
0.18457031
-1.5
-0.89355469
0.17285156
1.48242188
-0.609375
1.15722656
-1.40917969
1.22167969
-1.43847656
-1.5
-1.5
1.48242188
0.328125
1.48242188
-1.48535156
0.84667969
-1.5
0.54785156
-1.5
1.33886719
-0.55957031
-0.25195312
-0.48046875
1.48242188
-0.92285156
0.99609375
-1.18652344
0.38671875
-1.5
1.09570312
-1.26269531
0.87890625
-1.5
0.5859375
1.1953125
1.48242188
-1.23632812
0.7265625
-1.5
0.1640625
0.68554688
1.13964844
-1.5
-1.34472656
-1.42675781
0.58886719
-0.046875
1.04882812
-1.30957031
1.48242188
-0.03808594
1.0546875
-1.5
1.48242188
-0.5625
-0.22851562
-1.5
-1.5
-1.5
1.48242188
1.48242188
0.42480469
-1.15429688
1.25976562
0.3515625
0.68847656
-1.5
-0.04394531
0.21386719
1.33886719
-1.5
1.47949219
0.0
0.31640625
-1.5
1.01953125
-0.15527344
-0.9609375
-1.5
1.48242188
-1.5
0.20507812
-1.5
-1.5
-1.5
-1.5
-1.5
1.48242188
0.62402344
1.48242188
1.48242188
1.48242188
0.08203125
1.48242188
1.48242188
1.48242188
0.97851562
1.48242188
1.15429688
-0.09082031
-1.16015625
1.48242188
0.80859375
1.48242188
-0.27832031
1.48242188
-1.5
0.50097656
-1.11328125
1.48242188
-0.48632812
1.48242188
-1.5
0.81738281
-1.18359375
0.64746094
-1.29492187
0.9140625
-0.04394531
1.48242188
-1.5
0.98144531
-1.3828125
1.17480469
-1.16015625
0.90234375
-1.1953125
0.89941406
-1.5
0.90820312
-1.24511719
0.11132812
-0.94042969
1.19824219
-0.97558594
1.48242188
-1.5
0.66210937
-0.8671875
-1.5
-0.78222656
1.48242188
-0.41308594
1.20117188
-1.04589844
0.36621094
-1.5
0.41601562
-1.5
-0.23144531
1.13671875
1.48242188
-1.5
-0.77929687
-1.5
1.44433594
-1.08984375
0.23730469
-0.85839844
1.48242188
-0.5625
1.48242188
-1.41210938
-1.5
-1.5
-1.5
1.48242188
1.48242188
-0.36914062
0.60351562
-0.73242188
0.99902344
-1.5
0.72363281
-1.5
0.66503906
-1.10449219
0.47167969
-1.5
-0.26367188
-1.5
0.41308594
-1.5
0.87890625
-0.22558594
-0.21386719
-1.5
-1.16015625
-1.5
-1.39160156
-1.5
-1.5
-1.5
-1.29199219
-1.5
1.48242188
0.30175781
1.48242188
0.9140625
1.48242188
1.48242188
1.48242188
1.48242188
1.48242188
0.75292969
1.48242188
-0.3046875
1.48242188
-0.67675781
1.48242188
-1.10742188
1.48242188
0.30175781
1.3828125
-0.984375
0.67382812
-1.5
-0.38964844
-0.27246094
0.62402344
-1.35058594
1.48242188
-0.72070312
1.01953125
-1.23339844
1.27148437
-1.5
0.83203125
-1.5
0.44238281
-1.5
1.48242188
-0.12304688
1.06347656
-1.17480469
-0.02050781
-1.5
0.52148438
-1.40917969
1.48242188
-0.35742188
1.48242188
-1.5
-1.5
-1.5
0.984375
-0.62402344
1.48242188
-1.5
1.48242188
-0.48632812
1.0078125
-1.5
0.41601562
0.24316406
1.48242188
-0.83496094
-1.11328125
-1.29199219
-0.78222656
-1.5
1.48242188
0.19042969
1.48242188
-0.60644531
1.08984375
-1.5
0.609375
-1.20996094
-0.80273438
-1.5
-1.5
-1.5
1.48242188
1.48242188
1.26269531
-1.5
-1.5
1.20410156
1.48242188
-1.29492187
1.4765625
-1.5
-1.5
-0.2109375
1.48242188
-0.80566406
0.9609375
-1.5
-0.28125
-1.5
1.30078125
-1.5
1.27734375
-1.40332031
-0.49511719
-1.5
-1.09277344
-1.5
-1.5
-1.5
-0.35449219
-0.36621094
1.48242188
1.48242188
1.48242188
1.48242188
1.48242188
0.79980469
1.48242188
1.48242188
1.48242188
0.24902344
1.48242188
0.18164062
1.48242188
-0.50390625
1.48242188
-0.59765625
0.11132812
-0.34277344
1.48242188
0.09960938
1.48242188
-1.19824219
-0.234375
-1.5
1.48242188
-1.36230469
0.65332031
-1.5
1.48242188
-1.5
0.76757812
-0.22265625
1.37109375
-1.06054687
0.24316406
-1.06054687
1.11035156
-1.5
0.55957031
-1.5
0.97265625
-0.60058594
1.48242188
-1.04589844
0.87011719
-1.078125
1.35351562
-1.5
0.13769531
-1.19824219
0.76171875
-1.29199219
0.7265625
-0.56542969
1.28320312
-0.75878906
0.75878906
-1.5
-0.515625
-1.5
1.48242188
-1.0546875
0.72070312
-1.5
1.16601562
-1.36523438
0.15527344
-0.83789062
1.48242188
-1.36230469
0.8203125
-1.25683594
1.48242188
-0.82324219
0.0703125
-1.5
-1.5
1.453125
1.48242188
0.75585938
0.5859375
-1.5
1.48242188
-0.95800781
1.1015625
-1.34472656
0.15234375
-1.06933594
-0.33105469
-1.30957031
1.37988281
-1.5
0.33105469
-1.5
0.09375
-1.23339844
0.3984375
-1.5
-0.04980469
-1.5
-1.5
-1.5
-1.5
-1.5
-1.5
-1.5
-0.07324219
0.43945312
1.48242188
1.48242188
1.48242188
1.48242188
1.48242188
1.48242188
1.48242188
0.65039062
1.48242188
0.20800781
1.48242188
-0.60058594
1.48242188
0.37207031
1.48242188
-1.23046875
1.16894531
-0.54492187
0.94921875
-0.59472656
1.48242188
-1.22460937
1.48242188
-1.32421875
0.84082031
-1.5
1.48242188
-0.84082031
1.48242188
-1.2421875
1.27734375
-1.5
-0.03222656
-1.5
0.91113281
0.08496094
0.48632812
-0.65625
1.48242188
-1.5
0.01757812
-1.5
1.12792969
0.40136719
1.18359375
-1.16894531
1.18945312
-1.28027344
1.48242188
-1.28027344
0.67089844
-1.5
0.5625
-0.99609375
0.890625
-1.5
1.48242188
-1.5
1.48242188
-0.80859375
0.95800781
-1.5
-0.36328125
-1.5
1.47949219
-0.49511719
1.48242188
0.31933594
1.13964844
-0.40429688
0.70605469
-1.45605469
-1.5
-1.5
-1.5
1.48242188
1.48242188
-0.74121094
0.82910156
-0.82910156
1.18066406
-1.5
0.45703125
-1.5
0.40429688
-1.22753906
0.92871094
-0.6796875
1.48242188
-1.5
0.07910156
-1.5
0.65332031
-1.31542969
-0.10253906
-1.30957031
-1.18945312
-1.5
-1.37695312
-1.5
-1.5
-1.5
-0.19335937
-1.5
0.66503906
0.57128906
1.48242188
1.48242188
1.48242188
1.48242188
1.48242188
1.48242188
1.48242188
0.62695312
1.48242188
1.48242188
1.48242188
-0.11132812
1.30078125
0.2578125
1.16601562
-1.5
1.48242188
-0.375
1.48242188
-0.73535156
0.97851562
-1.18945312
0.82617187
-1.5
1.11035156
-1.5
1.48242188
-0.85546875
1.48242188
-1.44433594
0.80273438
-1.5
0.47167969
0.16113281
0.60351562
-1.5
0.76171875
-0.74414062
1.32128906
-1.07519531
0.55957031
-1.5
1.48242188
-0.97265625
-1.33007812
-0.91992188
1.48242188
-0.93164062
0.3046875
-1.5
0.90820312
-0.83496094
0.81738281
-1.5
0.140625
-1.5
1.48242188
0.3046875
1.09863281
-0.9140625
1.48242188
-0.35449219
1.00195312
-1.5
-0.75585938
-1.5
-1.5
0.14648438
1.48242188
1.48242188
1.11328125
-1.5
-0.72363281
-0.18164062
0.76171875
-1.5
0.02636719
-0.74414062
1.48242188
-1.5
-0.046875
-1.5
-0.46582031
-1.27734375
0.28710938
-1.5
0.7265625
-1.40039062
-1.03417969
-1.5
-1.33007812
-1.5
-1.5
-1.5
-1.5
-1.5
0.44238281
0.59472656
1.48242188
1.30664062
1.48242188
1.48242188
1.48242188
1.13964844
1.48242188
0.85253906
1.48242188
0.0234375
1.48242188
-0.38085938
1.48242188
0.60644531
1.48242188
-0.73242188
0.33691406
-1.27148437
1.47949219
-1.5
1.48242188
-1.5
1.48242188
1.04003906
1.31835938
-0.98144531
0.92285156
-1.5
-0.51269531
-1.5
1.48242188
-0.19628906
1.14550781
-0.76464844
1.48242188
-1.5
-0.41308594
-1.5
1.18945312
1.25976562
0.39257812
-0.89648437
1.48242188
-0.98144531
0.52148438
-1.5
-1.07519531
-1.13964844
1.48242188
-0.74121094
0.83203125
-1.5
-1.01367188
-0.23144531
1.48242188
0.16113281
1.48242188
-1.2890625
0.06738281
-1.5
0.72070312
-1.5
1.48242188
-1.5
1.1015625
-1.5
-1.26855469
-1.01074219
1.48242188
0.45117187
1.01660156
-0.00292969
1.48242188
-1.5
0.10253906
-0.91992188
-1.5
-1.5
-0.2578125
1.48242188
1.48242188
-1.20996094
-0.50683594
-1.5
1.13964844
-0.66796875
0.04980469
-1.5
1.48242188
-0.77050781
0.07910156
-1.5
1.40039062
-1.06347656
0.3515625
-1.5
0.02636719
-1.5
-0.10546875
-1.5
0.73242188
-1.5
-1.03417969
-1.5
-1.5
-1.5
-1.5
-1.5
0.89941406
0.68261719
1.48242188
1.48242188
1.48242188
1.48242188
1.48242188
1.48242188
1.48242188
1.359375
1.48242188
-0.06152344
1.14550781
0.7265625
1.48242188
-0.78222656
1.48242188
0.38964844
1.48242188
-1.5
0.74414062
-0.66210937
1.48242188
-1.125
1.3125
-1.5
0.60351562
-1.49121094
0.65625
-0.71777344
0.88769531
-1.5
1.48242188
-0.88769531
0.26953125
-1.5
-0.17871094
-0.8203125
1.48242188
-1.42382812
-0.14355469
-0.42773437
0.61230469
-0.80273438
0.50976562
-0.984375
-0.06738281
-1.5
1.30371094
-1.00488281
1.453125
-0.76171875
1.0078125
-1.5
0.50976562
-1.16601562
-0.05566406
-1.44726562
1.48242188
-1.04882812
0.61816406
-1.5
0.96679688
-1.02832031
-0.703125
-1.5
-0.33691406
-0.57128906
1.13378906
-0.30175781
1.48242188
-1.14257812
1.10449219
-1.5
0.76757812
-0.1875
-1.5
-1.5
-1.5
1.48242188
1.48242188
-0.45703125
0.99609375
-1.04003906
1.48242188
-0.36621094
0.29003906
-1.5
1.37402344
-1.5
0.77050781
-1.5
1.48242188
-1.40917969
0.61816406
-1.5
1.06347656
-1.5
1.18945312
-1.5
-0.609375
-1.5
-1.5
-1.5
-1.5
-1.5
-0.80273438
-1.5
1.48242188
1.10449219
1.48242188
1.48242188
1.48242188
0.32519531
1.48242188
1.48242188
1.48242188
0.40429688
1.48242188
0.87890625
1.48242188
-0.33984375
0.95507812
0.24023437
1.48242188
-1.5
0.31640625
0.47460938
1.48242188
-1.26855469
1.359375
-0.25488281
0.89355469
-1.5
1.48242188
-1.5
0.04980469
-1.39746094
1.08691406
0.03515625
1.48242188
-1.30664062
0.35742188
-1.45605469
0.55078125
-1.06933594
1.48242188
-0.75292969
1.48242188
-1.5
0.97265625
-1.5
-0.21679688
-1.5
1.48242188
0.07324219
1.09277344
-0.98730469
0.29003906
-1.5
-0.77636719
-1.22460937
0.78515625
-0.26074219
0.02050781
-0.45117187
1.48242188
-1.5
-0.33984375
-1.5
0.99316406
-0.48046875
1.25097656
-1.5
1.39746094
0.81152344
1.48242188
-1.23632812
-1.5
-1.5
-0.67675781
1.48242188
1.48242188
-0.43066406
0.70019531
-1.18945312
0.85253906
-1.5
0.05273438
0.12304688
1.48242188
-0.79101562
1.10449219
-0.98144531
0.28417969
-1.5
0.21972656
-1.23046875
-1.5
-0.66210937
1.48242188
-0.04980469
0.13476562
-1.5
-1.5
-1.5
-1.5
-1.5
-0.55371094
-0.19628906
1.48242188
0.20507812
1.48242188
1.13964844
1.48242188
0.60644531
1.27734375
-0.43066406
1.48242188
0.41894531
1.48242188
1.44140625
1.48242188
0.02636719
0.43945312
-1.5
1.44140625
0.18164062
1.48242188
0.74121094
1.48242188
0.18457031
1.32421875
-1.49121094
0.00292969
-1.5
1.48242188
-1.40039062
0.33984375
-1.5
1.2421875
-0.49804688
1.29199219
-1.5
1.48242188
-0.69433594
