6.2256e-06
6.2256e-06
6.2256e-06
6.2256e-06
6.2256e-06
6.2256e-06
6.2256e-06
6.2256e-06
6.2256e-06
6.25e-06
6.2256e-06
6.2256e-06
6.2256e-06
6.2256e-06
6.2256e-06
6.25e-06
6.2256e-06
6.25e-06
6.25e-06
6.25e-06
6.25e-06
6.2256e-06
6.25e-06
6.25e-06
6.25e-06
6.25e-06
6.25e-06
6.25e-06
6.25e-06
6.25e-06
6.25e-06
6.25e-06
6.25e-06
6.25e-06
6.25e-06
6.25e-06
6.25e-06
6.25e-06
6.25e-06
6.25e-06
6.25e-06
6.25e-06
6.25e-06
6.25e-06
6.25e-06
6.25e-06
6.25e-06
6.25e-06
6.25e-06
6.25e-06
6.25e-06
6.2744e-06
6.25e-06
6.2744e-06
6.2744e-06
6.2744e-06
6.2744e-06
6.2744e-06
6.2744e-06
6.25e-06
6.25e-06
6.2744e-06
6.2744e-06
6.2744e-06
6.2744e-06
6.2744e-06
6.2744e-06
6.2744e-06
6.2744e-06
6.2744e-06
6.2744e-06
6.2744e-06
6.2744e-06
6.2744e-06
6.2744e-06
6.2744e-06
6.2744e-06
6.2744e-06
6.2744e-06
6.2744e-06
6.2744e-06
6.2744e-06
6.2744e-06
6.2744e-06
6.2744e-06
6.2744e-06
6.2744e-06
6.2744e-06
6.2744e-06
6.2744e-06
6.2744e-06
6.2744e-06
6.2744e-06
6.2744e-06
6.2744e-06
6.2744e-06
6.2744e-06
6.2744e-06
6.2744e-06
6.2744e-06
6.2744e-06
6.2744e-06
6.2744e-06
6.2744e-06
6.2744e-06
6.2744e-06
6.2744e-06
6.2744e-06
6.2744e-06
6.2744e-06
6.2744e-06
6.2744e-06
6.2744e-06
6.2744e-06
6.2744e-06
6.2744e-06
6.2744e-06
6.2744e-06
6.2744e-06
6.2744e-06
6.2744e-06
6.2744e-06
6.2744e-06
6.25e-06
6.2744e-06
6.2744e-06
6.2744e-06
6.2744e-06
6.2744e-06
6.2744e-06
6.2744e-06
6.2744e-06
6.2744e-06
6.2744e-06
6.2744e-06
6.2744e-06
6.2744e-06
6.2744e-06
6.2744e-06
6.25e-06
6.2744e-06
6.2744e-06
6.2744e-06
6.2744e-06
6.2744e-06
6.25e-06
6.25e-06
6.2744e-06
6.2744e-06
6.2744e-06
6.2744e-06
6.2744e-06
6.2744e-06
6.2744e-06
6.2744e-06
6.2744e-06
6.2744e-06
6.2744e-06
6.2744e-06
6.25e-06
6.2744e-06
6.2744e-06
6.2744e-06
6.25e-06
6.2744e-06
6.2744e-06
6.2744e-06
6.25e-06
6.2744e-06
6.2744e-06
6.2744e-06
6.2744e-06
6.2744e-06
6.25e-06
6.2744e-06
6.2744e-06
6.2744e-06
6.2744e-06
6.2744e-06
6.2744e-06
6.2744e-06
6.2744e-06
6.2744e-06
6.2744e-06
6.2744e-06
6.2744e-06
6.2744e-06
6.2744e-06
6.2744e-06
6.2744e-06
6.2744e-06
6.2744e-06
6.2744e-06
6.2744e-06
6.2744e-06
6.2744e-06
6.2744e-06
6.2744e-06
6.2744e-06
6.2744e-06
6.2744e-06
6.2744e-06
6.2744e-06
6.2744e-06
6.2988e-06
6.2988e-06
6.2988e-06
6.2744e-06
6.2988e-06
6.2988e-06
6.2988e-06
6.2988e-06
6.2988e-06
6.2988e-06
6.2988e-06
6.2988e-06
6.2988e-06
6.2988e-06
6.3232e-06
6.2988e-06
6.3232e-06
6.3232e-06
6.3232e-06
6.3232e-06
6.3232e-06
6.3232e-06
6.3232e-06
6.3232e-06
6.3232e-06
6.3232e-06
6.3232e-06
6.3232e-06
6.3477e-06
6.3477e-06
6.3477e-06
6.3477e-06
6.3477e-06
6.3477e-06
6.3477e-06
6.3477e-06
6.3721e-06
6.3721e-06
6.3721e-06
6.3721e-06
6.3965e-06
6.3965e-06
6.3965e-06
6.3965e-06
6.3965e-06
6.3965e-06
6.3965e-06
6.3965e-06
6.3965e-06
6.3965e-06
6.4209e-06
6.4209e-06
6.4209e-06
6.4209e-06
6.4209e-06
6.4209e-06
6.4453e-06
6.4209e-06
6.4209e-06
6.4453e-06
6.4453e-06
6.4453e-06
6.4453e-06
6.4453e-06
6.4453e-06
6.4453e-06
6.4697e-06
6.4697e-06
6.4697e-06
6.4697e-06
6.4697e-06
6.4697e-06
6.4697e-06
6.4697e-06
6.4697e-06
6.4941e-06
6.4941e-06
6.4941e-06
6.4941e-06
6.4941e-06
6.5186e-06
6.5186e-06
6.5186e-06
6.5186e-06
6.5186e-06
6.5186e-06
6.5186e-06
6.5186e-06
6.543e-06
6.543e-06
6.543e-06
6.543e-06
6.543e-06
6.543e-06
6.5674e-06
6.5674e-06
6.5674e-06
6.5674e-06
6.5674e-06
6.5674e-06
6.5918e-06
6.5918e-06
6.5918e-06
6.5918e-06
6.5918e-06
6.5918e-06
6.6162e-06
6.6162e-06
6.6162e-06
6.6162e-06
6.6162e-06
6.6162e-06
6.6162e-06
6.6162e-06
6.6162e-06
6.6162e-06
6.6406e-06
6.6406e-06
6.6406e-06
6.6406e-06
6.665e-06
6.665e-06
6.665e-06
6.665e-06
6.665e-06
6.665e-06
6.6895e-06
6.6895e-06
6.6895e-06
6.6895e-06
6.7139e-06
6.7139e-06
6.7139e-06
6.7139e-06
6.7139e-06
6.7139e-06
6.7383e-06
6.7383e-06
6.7383e-06
6.7383e-06
6.7383e-06
6.7627e-06
6.7383e-06
6.7627e-06
6.7871e-06
6.7871e-06
6.7871e-06
6.7871e-06
6.7871e-06
6.7871e-06
6.7871e-06
6.7871e-06
6.8115e-06
6.8115e-06
6.8115e-06
6.8115e-06
6.8115e-06
6.8115e-06
6.8359e-06
6.8359e-06
6.8359e-06
6.8359e-06
6.8359e-06
6.8359e-06
6.8359e-06
6.8359e-06
6.8604e-06
6.8604e-06
6.8604e-06
6.8604e-06
6.8604e-06
6.8604e-06
6.8604e-06
6.8848e-06
6.8848e-06
6.8848e-06
6.8848e-06
6.8848e-06
6.9092e-06
6.9092e-06
6.9092e-06
6.9092e-06
6.9092e-06
6.9092e-06
6.9092e-06
6.9336e-06
6.9336e-06
6.9336e-06
6.9336e-06
6.9336e-06
6.9336e-06
6.9336e-06
6.9336e-06
6.9336e-06
6.9336e-06
6.958e-06
6.958e-06
6.958e-06
6.958e-06
6.958e-06
6.958e-06
6.958e-06
6.958e-06
6.9824e-06
6.9824e-06
6.9824e-06
6.9824e-06
6.9824e-06
6.9824e-06
6.9824e-06
7.0068e-06
7.0068e-06
7.0068e-06
7.0068e-06
7.0068e-06
7.0068e-06
7.0068e-06
7.0068e-06
7.0068e-06
7.0068e-06
7.0312e-06
7.0312e-06
7.0312e-06
7.0312e-06
7.0312e-06
7.0312e-06
7.0312e-06
7.0312e-06
7.0312e-06
7.0312e-06
7.0312e-06
7.0312e-06
7.0557e-06
7.0557e-06
7.0557e-06
7.0557e-06
7.0557e-06
7.0557e-06
7.0557e-06
7.0557e-06
7.0801e-06
7.0801e-06
7.0801e-06
7.0801e-06
7.0801e-06
7.0801e-06
7.0801e-06
7.0801e-06
7.0801e-06
7.0801e-06
7.1045e-06
7.1045e-06
7.1045e-06
7.1045e-06
7.1045e-06
7.1045e-06
7.1045e-06
7.1045e-06
7.1045e-06
7.1045e-06
7.1045e-06
7.1045e-06
7.1045e-06
7.1045e-06
7.1289e-06
7.1289e-06
7.1045e-06
7.1289e-06
7.1289e-06
7.1289e-06
7.1289e-06
7.1289e-06
7.1289e-06
7.1289e-06
7.1289e-06
7.1289e-06
7.1289e-06
7.1289e-06
7.1289e-06
7.1289e-06
7.1289e-06
7.1289e-06
7.1289e-06
7.1289e-06
7.1289e-06
7.1289e-06
7.1289e-06
7.1289e-06
7.1289e-06
7.1533e-06
7.1289e-06
7.1289e-06
7.1533e-06
7.1533e-06
7.1533e-06
7.1289e-06
7.1533e-06
7.1533e-06
7.1533e-06
7.1289e-06
7.1533e-06
7.1533e-06
7.1533e-06
7.1533e-06
7.1533e-06
7.1533e-06
7.1533e-06
7.1533e-06
7.1533e-06
7.1533e-06
7.1533e-06
7.1533e-06
7.1777e-06
7.1533e-06
7.1533e-06
7.1533e-06
7.1533e-06
7.1533e-06
7.1533e-06
7.1777e-06
7.1777e-06
7.1777e-06
7.1777e-06
7.1777e-06
7.1777e-06
7.1777e-06
7.1777e-06
7.1777e-06
7.1777e-06
7.2021e-06
7.2021e-06
7.2021e-06
7.2021e-06
7.2021e-06
7.2021e-06
7.2021e-06
7.2021e-06
7.2021e-06
7.2021e-06
7.2021e-06
7.2266e-06
7.2266e-06
7.2266e-06
7.2266e-06
7.2266e-06
7.2266e-06
7.251e-06
7.2266e-06
7.251e-06
7.251e-06
7.251e-06
7.251e-06
7.251e-06
7.251e-06
7.251e-06
7.251e-06
7.2754e-06
7.2754e-06
7.2754e-06
7.2754e-06
7.2754e-06
7.2754e-06
7.2754e-06
7.2998e-06
7.2998e-06
7.2998e-06
7.2998e-06
7.2998e-06
7.3242e-06
7.3242e-06
7.3242e-06
7.3242e-06
7.3242e-06
7.3242e-06
7.3242e-06
7.3242e-06
7.3486e-06
7.3486e-06
7.3486e-06
7.373e-06
7.373e-06
7.373e-06
7.373e-06
7.373e-06
7.3975e-06
7.3975e-06
7.3975e-06
7.3975e-06
7.3975e-06
7.4219e-06
7.4219e-06
7.4219e-06
7.4219e-06
7.4219e-06
7.4463e-06
7.4463e-06
7.4463e-06
7.4463e-06
7.4463e-06
7.4707e-06
7.4707e-06
7.4707e-06
7.4951e-06
7.4951e-06
7.4951e-06
7.4951e-06
7.4951e-06
7.5195e-06
7.5195e-06
7.5195e-06
7.5439e-06
7.5439e-06
7.5439e-06
7.5684e-06
7.5684e-06
7.5684e-06
7.5684e-06
7.5928e-06
7.5928e-06
7.5928e-06
7.5928e-06
7.6172e-06
7.6172e-06
7.6172e-06
7.6172e-06
7.6172e-06
7.6416e-06
7.6416e-06
7.6416e-06
7.666e-06
7.666e-06
7.666e-06
7.6904e-06
7.6904e-06
7.6904e-06
7.6904e-06
7.6904e-06
7.7148e-06
7.7148e-06
7.7148e-06
7.7393e-06
7.7393e-06
7.7393e-06
7.7637e-06
7.7637e-06
7.7637e-06
7.7637e-06
7.7881e-06
7.7881e-06
7.7881e-06
7.7881e-06
7.8125e-06
7.8125e-06
7.8125e-06
7.8125e-06
7.8369e-06
7.8369e-06
7.8369e-06
7.8613e-06
7.8613e-06
7.8613e-06
7.8857e-06
7.8857e-06
7.8857e-06
7.9102e-06
7.9102e-06
7.9102e-06
7.9346e-06
7.9346e-06
7.959e-06
7.959e-06
7.9834e-06
7.9834e-06
7.9834e-06
8.0078e-06
8.0078e-06
8.0322e-06
8.0322e-06
8.0566e-06
8.0811e-06
8.0811e-06
8.1055e-06
8.1055e-06
8.1299e-06
8.1299e-06
8.1543e-06
8.1543e-06
8.1787e-06
8.1787e-06
8.1787e-06
8.1787e-06
8.2031e-06
8.2275e-06
8.2275e-06
8.2275e-06
8.2275e-06
8.252e-06
8.252e-06
8.2764e-06
8.2764e-06
8.2764e-06
8.3008e-06
8.3008e-06
8.3252e-06
8.3252e-06
8.3496e-06
8.3496e-06
8.374e-06
8.374e-06
8.3984e-06
8.3984e-06
8.3984e-06
8.4229e-06
8.4229e-06
8.4229e-06
8.4473e-06
8.4473e-06
8.4473e-06
8.4717e-06
8.4717e-06
8.4717e-06
8.4717e-06
8.4717e-06
8.4961e-06
8.4961e-06
8.4961e-06
8.4961e-06
8.4961e-06
8.5205e-06
8.5205e-06
8.5205e-06
8.5449e-06
8.5449e-06
8.5693e-06
8.5693e-06
8.5693e-06
8.5937e-06
8.5937e-06
8.5937e-06
8.6182e-06
8.6182e-06
8.6182e-06
8.6426e-06
8.6426e-06
8.667e-06
8.667e-06
8.667e-06
8.667e-06
8.6914e-06
8.6914e-06
8.6914e-06
8.7158e-06
8.7158e-06
8.7402e-06
8.7158e-06
8.7402e-06
8.7402e-06
8.7646e-06
8.7646e-06
8.7646e-06
8.7646e-06
8.7891e-06
8.7891e-06
8.8135e-06
8.8135e-06
8.8135e-06
8.8135e-06
8.8135e-06
8.8379e-06
8.8379e-06
8.8379e-06
8.8379e-06
8.8623e-06
8.8379e-06
8.8623e-06
8.8623e-06
8.8623e-06
8.8623e-06
8.8623e-06
8.8867e-06
8.8867e-06
8.8867e-06
8.8867e-06
8.8867e-06
8.8867e-06
8.8867e-06
8.9111e-06
8.9111e-06
8.9111e-06
8.9111e-06
8.9111e-06
8.9355e-06
8.9355e-06
8.9355e-06
8.9355e-06
8.9355e-06
8.9355e-06
8.9355e-06
8.9355e-06
8.9355e-06
8.9355e-06
8.9355e-06
8.9355e-06
8.9355e-06
8.9355e-06
8.9355e-06
8.9355e-06
8.9355e-06
8.9355e-06
8.9355e-06
8.9355e-06
8.9355e-06
8.9355e-06
8.9355e-06
8.9355e-06
8.9355e-06
8.9355e-06
8.9355e-06
8.9355e-06
8.96e-06
8.96e-06
8.96e-06
8.96e-06
8.96e-06
8.96e-06
8.96e-06
8.96e-06
8.96e-06
8.96e-06
8.96e-06
8.96e-06
8.96e-06
8.96e-06
8.96e-06
8.96e-06
8.96e-06
8.96e-06
8.96e-06
8.96e-06
8.96e-06
8.96e-06
8.96e-06
8.96e-06
8.96e-06
8.96e-06
8.96e-06
8.96e-06
8.96e-06
8.96e-06
8.96e-06
8.96e-06
8.96e-06
8.96e-06
8.96e-06
8.96e-06
8.96e-06
8.96e-06
8.96e-06
8.96e-06
8.96e-06
8.96e-06
8.96e-06
8.96e-06
8.96e-06
8.96e-06
8.96e-06
8.96e-06
8.96e-06
8.96e-06
8.96e-06
8.96e-06
8.96e-06
8.96e-06
8.96e-06
8.96e-06
8.96e-06
8.96e-06
8.96e-06
8.96e-06
8.96e-06
8.96e-06
8.96e-06
8.96e-06
8.96e-06
8.96e-06
8.96e-06
8.96e-06
8.96e-06
8.96e-06
8.96e-06
8.96e-06
8.96e-06
8.96e-06
8.96e-06
8.96e-06
8.96e-06
8.96e-06
8.96e-06
8.96e-06
8.96e-06
8.96e-06
8.96e-06
8.96e-06
8.96e-06
8.96e-06
8.96e-06
8.96e-06
8.96e-06
8.96e-06
8.96e-06
8.96e-06
8.96e-06
8.96e-06
8.96e-06
8.96e-06
8.96e-06
8.96e-06
8.96e-06
8.96e-06
8.96e-06
8.96e-06
8.96e-06
8.96e-06
8.96e-06
8.96e-06
8.96e-06
8.96e-06
8.96e-06
8.96e-06
8.96e-06
8.96e-06
8.96e-06
8.96e-06
8.96e-06
8.96e-06
8.96e-06
8.96e-06
8.96e-06
8.96e-06
8.96e-06
8.96e-06
8.96e-06
8.96e-06
8.96e-06
8.96e-06
8.96e-06
8.96e-06
8.96e-06
8.96e-06
8.96e-06
8.96e-06
8.96e-06
8.96e-06
8.96e-06
8.96e-06
8.96e-06
8.96e-06
8.96e-06
8.96e-06
8.96e-06
8.96e-06
8.96e-06
8.96e-06
8.96e-06
8.96e-06
8.9355e-06
8.9355e-06
8.96e-06
8.96e-06
8.9355e-06
8.9355e-06
8.96e-06
8.9355e-06
8.9355e-06
8.9355e-06
8.9355e-06
8.96e-06
8.9355e-06
8.9355e-06
8.9355e-06
8.9355e-06
8.9355e-06
8.9355e-06
8.9355e-06
8.9355e-06
8.9355e-06
8.9355e-06
8.9355e-06
8.9355e-06
8.9355e-06
8.9355e-06
8.9355e-06
8.9355e-06
8.9355e-06
8.9355e-06
8.9355e-06
8.9355e-06
8.9355e-06
8.9355e-06
8.9355e-06
8.9355e-06
8.9355e-06
8.9355e-06
8.9355e-06
8.9355e-06
8.9355e-06
8.9355e-06
8.9355e-06
8.9355e-06
8.9355e-06
8.9355e-06
8.9355e-06
8.9355e-06
8.9355e-06
8.9111e-06
8.9355e-06
8.9355e-06
8.9355e-06
8.9355e-06
8.9355e-06
8.9111e-06
8.9111e-06
8.9355e-06
8.9355e-06
8.9111e-06
8.9111e-06
8.9111e-06
8.9355e-06
8.9111e-06
8.9111e-06
8.9111e-06
8.9355e-06
8.9111e-06
8.9111e-06
8.9111e-06
8.9355e-06
8.9111e-06
8.9111e-06
8.9111e-06
8.9111e-06
8.9111e-06
8.9111e-06
8.9111e-06
8.9355e-06
8.9111e-06
8.9111e-06
8.9111e-06
8.9111e-06
8.9111e-06
8.9111e-06
8.9111e-06
8.9111e-06
8.9111e-06
8.9111e-06
8.9111e-06
8.9111e-06
8.9111e-06
8.9111e-06
8.9111e-06
8.9111e-06
8.9111e-06
8.9111e-06
8.9111e-06
8.9355e-06
8.9355e-06
8.9355e-06
8.9355e-06
8.9355e-06
8.9355e-06
8.9355e-06
8.9355e-06
8.9355e-06
8.9355e-06
8.9355e-06
8.9355e-06
8.9355e-06
8.9355e-06
8.9355e-06
8.9355e-06
8.9355e-06
8.9355e-06
8.9355e-06
8.9355e-06
8.96e-06
8.96e-06
8.96e-06
8.96e-06
8.96e-06
8.96e-06
8.96e-06
8.96e-06
8.96e-06
8.96e-06
8.96e-06
8.9844e-06
8.9844e-06
8.9844e-06
8.9844e-06
8.9844e-06
8.9844e-06
8.9844e-06
8.9844e-06
8.9844e-06
8.9844e-06
8.9844e-06
8.9844e-06
8.9844e-06
8.9844e-06
8.9844e-06
9.0088e-06
8.9844e-06
9.0088e-06
8.9844e-06
8.9844e-06
8.9844e-06
9.0088e-06
9.0088e-06
9.0088e-06
9.0088e-06
9.0088e-06
9.0088e-06
9.0088e-06
9.0088e-06
9.0332e-06
9.0332e-06
9.0332e-06
9.0332e-06
9.0576e-06
9.0576e-06
9.0576e-06
9.0576e-06
9.0576e-06
9.0576e-06
9.0576e-06
9.0576e-06
9.082e-06
9.082e-06
9.082e-06
9.082e-06
9.082e-06
9.1064e-06
9.1064e-06
9.1064e-06
9.1064e-06
9.1064e-06
9.1309e-06
9.1309e-06
9.1309e-06
9.1309e-06
9.1553e-06
9.1553e-06
9.1553e-06
9.1553e-06
9.1553e-06
9.1797e-06
9.1797e-06
9.1797e-06
9.1797e-06
9.2041e-06
9.2041e-06
9.2285e-06
9.2285e-06
9.2285e-06
9.2529e-06
9.2529e-06
9.2529e-06
9.2529e-06
9.2773e-06
9.2773e-06
9.2773e-06
9.2773e-06
9.2773e-06
9.3018e-06
9.3018e-06
9.3262e-06
9.3262e-06
9.3262e-06
9.3506e-06
9.3506e-06
9.375e-06
9.375e-06
9.375e-06
9.375e-06
9.3994e-06
9.3994e-06
9.3994e-06
9.3994e-06
9.4238e-06
9.4238e-06
9.4238e-06
9.4238e-06
9.4482e-06
9.4482e-06
9.4482e-06
9.4482e-06
9.4482e-06
9.4727e-06
9.4727e-06
9.4727e-06
9.4971e-06
9.4971e-06
9.4971e-06
9.5215e-06
9.5215e-06
9.5215e-06
9.5215e-06
9.5459e-06
9.5459e-06
9.5459e-06
9.5459e-06
9.5703e-06
9.5703e-06
9.5703e-06
9.5947e-06
9.5947e-06
9.5947e-06
9.5947e-06
9.5947e-06
9.6191e-06
9.6191e-06
9.6191e-06
9.6191e-06
9.6191e-06
9.6436e-06
9.6436e-06
9.6436e-06
9.6436e-06
9.6436e-06
9.668e-06
9.668e-06
9.668e-06
9.6924e-06
9.6924e-06
9.6924e-06
9.6924e-06
9.7168e-06
9.7168e-06
9.7168e-06
9.7412e-06
9.7412e-06
9.7412e-06
9.7412e-06
9.7412e-06
9.7656e-06
9.7656e-06
9.7656e-06
9.79e-06
9.79e-06
9.79e-06
9.8145e-06
9.8145e-06
9.8389e-06
9.8389e-06
9.8389e-06
9.8389e-06
9.8633e-06
9.8633e-06
9.8877e-06
9.8877e-06
9.9121e-06
9.9121e-06
9.9121e-06
9.9365e-06
9.9365e-06
9.9365e-06
9.9609e-06
9.9609e-06
9.9854e-06
9.9854e-06
9.9854e-06
1.00098e-05
1.00342e-05
1.00342e-05
1.00342e-05
1.00342e-05
1.00586e-05
1.00586e-05
1.00586e-05
1.00586e-05
1.0083e-05
1.0083e-05
1.01074e-05
1.01074e-05
1.01318e-05
1.01318e-05
1.01318e-05
1.01318e-05
1.01562e-05
1.01562e-05
1.01807e-05
1.01807e-05
1.02051e-05
1.02051e-05
1.02051e-05
1.02051e-05
1.02295e-05
1.02295e-05
1.02295e-05
1.02295e-05
1.02539e-05
1.02539e-05
1.02539e-05
1.02783e-05
1.03027e-05
1.03027e-05
1.03271e-05
1.03271e-05
1.03271e-05
1.03516e-05
1.03516e-05
1.0376e-05
1.0376e-05
1.0376e-05
1.04004e-05
1.04004e-05
1.04248e-05
1.04248e-05
1.04492e-05
1.04492e-05
1.04492e-05
1.04492e-05
1.04736e-05
1.04736e-05
1.0498e-05
1.0498e-05
1.0498e-05
1.0498e-05
1.05225e-05
1.05225e-05
1.05225e-05
1.05469e-05
1.05469e-05
1.05469e-05
1.05469e-05
1.05713e-05
1.05957e-05
1.05957e-05
1.06201e-05
1.06201e-05
1.06445e-05
1.06445e-05
1.06445e-05
1.06689e-05
1.06689e-05
1.06689e-05
1.06689e-05
1.06689e-05
1.06934e-05
1.06934e-05
1.06934e-05
1.07178e-05
1.07178e-05
1.07178e-05
1.07178e-05
1.07178e-05
1.07422e-05
1.07422e-05
1.07422e-05
1.07422e-05
1.07422e-05
1.07422e-05
1.07422e-05
1.07422e-05
1.07422e-05
1.07422e-05
1.07422e-05
1.07422e-05
1.07666e-05
1.07666e-05
1.07666e-05
1.07666e-05
1.07666e-05
1.07666e-05
1.07666e-05
1.07666e-05
1.0791e-05
1.0791e-05
1.0791e-05
1.0791e-05
1.0791e-05
1.0791e-05
1.0791e-05
1.0791e-05
1.0791e-05
1.0791e-05
1.0791e-05
1.0791e-05
1.0791e-05
1.08154e-05
1.0791e-05
1.08154e-05
1.08154e-05
1.08154e-05
1.08154e-05
1.08154e-05
1.08154e-05
1.08154e-05
1.08154e-05
1.08154e-05
1.08154e-05
1.08154e-05
1.08154e-05
1.08154e-05
1.08154e-05
1.08154e-05
1.08154e-05
1.0791e-05
1.08154e-05
1.0791e-05
1.0791e-05
1.0791e-05
1.08154e-05
1.08154e-05
1.08154e-05
1.08154e-05
1.08154e-05
1.08154e-05
1.08154e-05
1.08154e-05
1.08154e-05
1.08154e-05
1.08154e-05
1.08154e-05
1.08398e-05
1.08398e-05
1.08398e-05
1.08398e-05
1.08398e-05
1.08398e-05
1.08154e-05
1.08154e-05
1.08398e-05
1.08154e-05
1.08154e-05
1.08154e-05
1.08398e-05
1.08154e-05
1.08154e-05
1.08154e-05
1.08154e-05
1.08154e-05
1.08154e-05
1.08154e-05
1.08154e-05
1.08154e-05
1.08154e-05
1.08154e-05
1.08154e-05
1.08154e-05
1.08154e-05
1.08154e-05
1.08154e-05
1.08154e-05
1.08154e-05
1.08154e-05
1.08154e-05
1.08154e-05
1.08154e-05
1.08154e-05
1.08154e-05
1.08154e-05
1.08154e-05
1.08154e-05
1.08154e-05
1.08154e-05
1.08398e-05
1.08154e-05
1.08154e-05
1.08154e-05
1.08398e-05
1.08154e-05
1.08154e-05
1.08154e-05
1.08398e-05
1.08154e-05
1.08154e-05
1.08154e-05
1.08154e-05
1.08154e-05
1.08154e-05
1.08154e-05
1.08154e-05
1.08154e-05
1.08154e-05
1.08154e-05
1.08154e-05
1.08154e-05
1.08154e-05
1.08154e-05
1.08154e-05
1.08154e-05
1.08154e-05
1.08154e-05
1.08154e-05
1.0791e-05
1.0791e-05
1.0791e-05
1.08154e-05
1.0791e-05
1.0791e-05
1.08154e-05
1.08154e-05
1.0791e-05
1.0791e-05
1.08154e-05
1.08154e-05
1.08154e-05
1.08154e-05
1.08154e-05
1.08154e-05
1.0791e-05
1.0791e-05
1.0791e-05
1.08154e-05
1.0791e-05
1.0791e-05
1.0791e-05
1.08154e-05
1.0791e-05
1.0791e-05
1.0791e-05
1.08154e-05
1.0791e-05
1.0791e-05
1.0791e-05
1.08154e-05
1.0791e-05
1.0791e-05
1.0791e-05
1.08154e-05
1.0791e-05
1.0791e-05
1.08154e-05
1.0791e-05
1.0791e-05
1.0791e-05
1.08154e-05
1.0791e-05
1.0791e-05
1.0791e-05
1.0791e-05
1.0791e-05
1.07666e-05
1.0791e-05
1.0791e-05
1.0791e-05
1.0791e-05
1.0791e-05
1.08154e-05
1.0791e-05
1.0791e-05
1.0791e-05
1.08154e-05
1.0791e-05
1.0791e-05
1.0791e-05
1.08154e-05
1.0791e-05
1.0791e-05
1.0791e-05
1.0791e-05
1.0791e-05
1.0791e-05
1.0791e-05
1.0791e-05
1.0791e-05
1.0791e-05
1.0791e-05
1.0791e-05
1.0791e-05
1.0791e-05
1.0791e-05
1.0791e-05
1.0791e-05
1.0791e-05
1.0791e-05
1.0791e-05
1.0791e-05
1.0791e-05
1.0791e-05
1.0791e-05
1.0791e-05
1.0791e-05
1.0791e-05
1.0791e-05
1.0791e-05
1.0791e-05
1.0791e-05
1.0791e-05
1.0791e-05
1.0791e-05
1.0791e-05
1.0791e-05
1.0791e-05
1.0791e-05
1.0791e-05
1.0791e-05
1.0791e-05
1.0791e-05
1.0791e-05
1.0791e-05
1.0791e-05
1.0791e-05
1.0791e-05
1.07666e-05
1.07666e-05
1.07666e-05
1.0791e-05
1.0791e-05
1.0791e-05
1.0791e-05
1.0791e-05
1.0791e-05
1.0791e-05
1.0791e-05
1.0791e-05
1.0791e-05
1.0791e-05
1.0791e-05
1.0791e-05
1.0791e-05
1.0791e-05
1.0791e-05
1.0791e-05
1.0791e-05
1.0791e-05
1.0791e-05
1.0791e-05
1.0791e-05
1.0791e-05
1.0791e-05
1.0791e-05
1.0791e-05
1.0791e-05
1.0791e-05
1.0791e-05
1.0791e-05
1.0791e-05
1.0791e-05
1.08154e-05
1.0791e-05
1.0791e-05
1.0791e-05
1.08154e-05
1.0791e-05
1.0791e-05
1.0791e-05
1.08154e-05
1.0791e-05
1.0791e-05
1.0791e-05
1.08154e-05
1.0791e-05
1.0791e-05
1.0791e-05
1.08154e-05
1.0791e-05
1.0791e-05
1.0791e-05
1.08154e-05
1.0791e-05
1.0791e-05
1.07666e-05
1.0791e-05
1.07666e-05
1.07666e-05
1.0791e-05
1.0791e-05
1.0791e-05
1.0791e-05
1.0791e-05
1.0791e-05
1.0791e-05
1.0791e-05
1.0791e-05
1.0791e-05
1.0791e-05
1.0791e-05
1.07666e-05
1.0791e-05
1.0791e-05
1.07666e-05
1.07666e-05
1.0791e-05
1.07666e-05
1.07666e-05
1.07666e-05
1.0791e-05
1.07666e-05
1.07666e-05
1.07666e-05
1.07666e-05
1.07666e-05
1.07666e-05
1.07666e-05
1.07666e-05
1.07666e-05
1.07666e-05
1.07666e-05
1.07666e-05
1.07666e-05
1.07666e-05
1.07666e-05
1.07666e-05
1.07666e-05
1.07666e-05
1.07666e-05
1.07666e-05
1.07666e-05
1.07666e-05
1.07666e-05
1.07666e-05
1.07666e-05
1.07666e-05
1.07666e-05
1.07666e-05
1.07666e-05
1.07666e-05
1.07666e-05
1.07666e-05
1.07666e-05
1.07666e-05
1.07666e-05
1.07666e-05
1.07666e-05
1.07666e-05
1.07666e-05
1.0791e-05
1.0791e-05
1.07666e-05
1.0791e-05
1.0791e-05
1.0791e-05
1.0791e-05
1.07666e-05
1.0791e-05
1.0791e-05
1.0791e-05
1.0791e-05
1.0791e-05
1.0791e-05
1.0791e-05
1.0791e-05
1.0791e-05
1.0791e-05
1.0791e-05
1.0791e-05
1.0791e-05
1.08154e-05
1.0791e-05
1.0791e-05
1.08154e-05
1.08154e-05
1.08154e-05
1.08154e-05
1.08154e-05
1.08154e-05
1.0791e-05
1.08154e-05
1.08154e-05
1.08154e-05
1.08154e-05
1.08154e-05
1.08154e-05
1.08154e-05
1.0791e-05
1.0791e-05
1.08154e-05
1.08154e-05
1.08154e-05
1.08154e-05
1.08154e-05
1.08154e-05
1.08154e-05
1.08154e-05
1.08154e-05
1.08154e-05
1.08154e-05
1.08154e-05
1.08154e-05
1.08154e-05
1.08154e-05
1.08154e-05
1.08398e-05
1.08398e-05
1.08398e-05
1.08398e-05
1.08398e-05
1.08398e-05
1.08398e-05
1.08398e-05
1.08398e-05
1.08398e-05
1.08398e-05
1.08398e-05
1.08643e-05
1.08643e-05
1.08643e-05
1.08643e-05
1.08643e-05
1.08643e-05
1.08643e-05
1.08887e-05
1.08887e-05
1.08887e-05
1.08887e-05
1.08887e-05
1.08887e-05
1.08887e-05
1.08887e-05
1.09131e-05
1.09131e-05
1.09131e-05
1.09131e-05
1.09131e-05
1.09131e-05
1.09375e-05
1.09375e-05
1.09375e-05
1.09375e-05
1.09375e-05
1.09375e-05
1.09375e-05
1.09619e-05
1.09619e-05
1.09619e-05
1.09619e-05
1.09619e-05
1.09619e-05
1.09619e-05
1.09863e-05
1.09863e-05
1.09863e-05
1.09619e-05
1.09863e-05
1.09863e-05
1.10107e-05
1.10107e-05
1.10107e-05
1.10107e-05
1.10107e-05
1.10107e-05
1.10107e-05
1.10352e-05
1.10352e-05
1.10352e-05
1.10352e-05
1.10352e-05
1.10596e-05
1.10596e-05
1.10596e-05
1.10596e-05
1.10596e-05
1.10596e-05
1.10596e-05
1.1084e-05
1.1084e-05
1.1084e-05
1.1084e-05
1.1084e-05
1.1084e-05
1.11084e-05
1.11084e-05
1.11084e-05
1.11084e-05
1.11084e-05
1.11084e-05
1.11084e-05
1.11084e-05
1.11328e-05
1.11328e-05
1.11328e-05
1.11328e-05
1.11328e-05
1.11328e-05
1.11328e-05
1.11328e-05
1.11328e-05
1.11328e-05
1.11328e-05
1.11328e-05
1.11572e-05
1.11572e-05
1.11572e-05
1.11572e-05
1.11572e-05
1.11572e-05
1.11328e-05
1.11572e-05
1.11572e-05
1.11572e-05
1.11572e-05
1.11572e-05
1.11816e-05
1.11816e-05
1.11816e-05
1.11816e-05
1.11816e-05
1.11816e-05
1.11816e-05
1.11816e-05
1.12061e-05
1.12061e-05
1.12061e-05
1.12061e-05
1.12061e-05
1.12061e-05
1.12061e-05
1.12061e-05
1.12061e-05
1.12061e-05
1.12061e-05
1.12061e-05
1.12061e-05
1.12061e-05
1.12061e-05
1.12061e-05
1.12305e-05
1.12061e-05
1.12305e-05
1.12305e-05
1.12305e-05
1.12305e-05
1.12305e-05
1.12305e-05
1.12305e-05
1.12305e-05
1.12305e-05
1.12305e-05
1.12305e-05
1.12305e-05
1.12305e-05
1.12305e-05
1.12305e-05
1.12305e-05
1.12305e-05
1.12305e-05
1.12305e-05
1.12305e-05
1.12305e-05
1.12305e-05
1.12305e-05
1.12061e-05
1.12305e-05
1.12305e-05
1.12305e-05
1.12305e-05
1.12305e-05
1.12305e-05
1.12305e-05
1.12305e-05
1.12305e-05
1.12305e-05
1.12549e-05
1.12305e-05
1.12549e-05
1.12549e-05
1.12305e-05
1.12305e-05
1.12549e-05
1.12305e-05
1.12305e-05
1.12305e-05
1.12549e-05
1.12549e-05
1.12305e-05
1.12549e-05
1.12549e-05
1.12549e-05
1.12549e-05
1.12549e-05
1.12549e-05
1.12549e-05
1.12549e-05
1.12549e-05
1.12549e-05
1.12549e-05
1.12549e-05
1.12549e-05
1.12549e-05
1.12793e-05
1.12549e-05
1.12549e-05
1.12793e-05
1.12549e-05
1.12549e-05
1.12793e-05
1.12793e-05
1.12793e-05
1.12793e-05
1.12793e-05
1.12793e-05
1.12793e-05
1.12793e-05
1.12549e-05
1.12549e-05
1.12549e-05
1.12549e-05
1.12793e-05
1.12793e-05
1.12793e-05
1.12793e-05
1.12793e-05
1.12793e-05
1.12793e-05
1.12793e-05
1.12793e-05
1.13037e-05
1.13037e-05
1.12793e-05
1.12793e-05
1.13037e-05
1.12793e-05
1.12793e-05
1.12793e-05
1.13037e-05
1.12793e-05
1.12793e-05
1.12793e-05
1.13037e-05
1.13037e-05
1.13037e-05
1.13037e-05
1.13037e-05
1.13037e-05
1.13037e-05
1.13037e-05
1.13037e-05
1.13037e-05
1.13037e-05
1.13037e-05
1.13037e-05
1.13037e-05
1.13037e-05
1.13037e-05
1.13037e-05
1.13037e-05
1.13037e-05
1.13037e-05
1.13037e-05
1.13037e-05
1.13037e-05
1.13037e-05
1.13037e-05
1.13037e-05
1.13037e-05
1.12793e-05
1.12793e-05
1.12793e-05
1.12793e-05
1.12793e-05
1.13037e-05
1.13037e-05
1.13037e-05
1.13037e-05
1.13037e-05
1.13037e-05
1.13037e-05
1.13037e-05
1.13037e-05
1.13037e-05
1.13037e-05
1.13037e-05
1.13037e-05
1.13037e-05
1.13037e-05
1.13037e-05
1.13037e-05
1.12793e-05
1.12793e-05
1.12793e-05
1.13037e-05
1.12793e-05
1.12793e-05
1.13037e-05
1.13037e-05
1.13037e-05
1.12793e-05
1.12793e-05
1.13037e-05
1.12793e-05
1.13037e-05
1.12793e-05
1.13037e-05
1.13037e-05
1.13037e-05
1.12793e-05
1.13037e-05
1.13037e-05
1.13037e-05
1.13037e-05
1.13037e-05
1.13037e-05
1.13037e-05
1.13037e-05
1.13281e-05
1.13281e-05
1.13281e-05
1.13281e-05
1.13281e-05
1.13281e-05
1.13281e-05
1.13281e-05
1.13525e-05
1.13525e-05
1.13525e-05
1.13525e-05
1.13525e-05
1.13525e-05
1.13525e-05
1.13525e-05
1.1377e-05
1.1377e-05
1.1377e-05
1.1377e-05
1.1377e-05
1.1377e-05
1.1377e-05
1.1377e-05
1.1377e-05
1.1377e-05
1.1377e-05
1.1377e-05
1.1377e-05
1.1377e-05
1.1377e-05
1.1377e-05
1.1377e-05
1.1377e-05
1.1377e-05
1.1377e-05
1.1377e-05
1.1377e-05
1.1377e-05
1.1377e-05
1.14014e-05
1.14014e-05
1.1377e-05
1.1377e-05
1.14014e-05
1.14014e-05
1.14014e-05
1.14014e-05
1.14014e-05
1.14014e-05
1.14014e-05
1.14014e-05
1.14014e-05
1.14014e-05
1.14014e-05
1.1377e-05
1.1377e-05
1.14014e-05
1.14014e-05
1.14014e-05
1.14014e-05
1.14014e-05
1.14014e-05
1.14014e-05
1.14014e-05
1.14014e-05
1.14014e-05
1.14014e-05
1.14014e-05
1.14014e-05
1.14014e-05
1.14014e-05
1.14014e-05
1.14014e-05
1.14014e-05
1.14014e-05
1.14014e-05
1.14014e-05
1.14014e-05
1.14014e-05
1.14014e-05
1.14014e-05
1.14014e-05
1.14014e-05
1.14258e-05
1.14258e-05
1.14258e-05
1.14258e-05
1.14258e-05
1.14258e-05
1.14258e-05
1.14258e-05
1.14502e-05
1.14502e-05
1.14502e-05
1.14502e-05
1.14502e-05
1.14502e-05
1.14502e-05
1.14502e-05
1.14746e-05
1.14746e-05
1.14746e-05
1.14746e-05
1.14746e-05
1.14746e-05
1.14746e-05
1.14746e-05
1.14746e-05
1.14746e-05
1.14746e-05
1.14746e-05
1.1499e-05
1.1499e-05
1.1499e-05
1.1499e-05
1.15234e-05
1.15234e-05
1.15234e-05
1.15234e-05
1.15234e-05
1.15234e-05
1.15234e-05
1.15234e-05
1.15479e-05
1.15479e-05
1.15479e-05
1.15479e-05
1.15479e-05
1.15723e-05
1.15479e-05
1.15723e-05
1.15723e-05
1.15723e-05
1.15967e-05
1.15967e-05
1.15967e-05
1.15967e-05
1.15967e-05
1.15967e-05
1.16211e-05
1.16211e-05
1.16211e-05
1.16211e-05
1.16211e-05
1.16211e-05
1.16211e-05
1.16211e-05
1.16211e-05
1.16455e-05
1.16455e-05
1.16455e-05
1.16455e-05
1.16455e-05
1.16699e-05
1.16699e-05
1.16699e-05
1.16699e-05
1.16455e-05
1.16455e-05
1.16455e-05
1.16699e-05
1.16699e-05
1.16699e-05
1.16699e-05
1.16943e-05
1.16943e-05
1.16943e-05
1.16943e-05
1.16943e-05
1.16943e-05
1.16943e-05
1.16943e-05
1.16943e-05
1.17188e-05
1.16943e-05
1.17188e-05
1.17188e-05
1.17188e-05
1.17188e-05
1.17188e-05
1.17188e-05
1.17188e-05
1.17188e-05
1.17188e-05
1.17188e-05
1.17188e-05
1.17188e-05
1.17188e-05
1.17188e-05
1.17188e-05
1.17188e-05
1.17188e-05
1.17188e-05
1.17432e-05
1.17188e-05
1.17188e-05
1.17188e-05
1.17188e-05
1.17188e-05
1.17188e-05
1.17432e-05
1.17432e-05
1.17432e-05
1.17432e-05
1.17432e-05
1.17432e-05
1.17432e-05
1.17432e-05
1.17188e-05
1.17432e-05
1.17432e-05
1.17432e-05
1.17432e-05
1.17432e-05
1.17432e-05
1.17432e-05
1.17432e-05
1.17676e-05
1.17676e-05
1.17676e-05
1.17676e-05
1.17676e-05
1.17676e-05
1.17676e-05
1.17676e-05
1.17676e-05
1.17676e-05
1.17676e-05
1.17676e-05
1.17676e-05
1.17676e-05
1.17676e-05
1.17676e-05
1.17676e-05
1.17676e-05
1.17676e-05
1.17676e-05
1.17676e-05
1.17676e-05
1.1792e-05
1.17676e-05
1.17676e-05
1.17676e-05
1.1792e-05
1.17676e-05
1.17676e-05
1.17676e-05
1.17676e-05
1.17676e-05
1.17676e-05
1.17676e-05
1.17676e-05
1.17676e-05
1.17676e-05
1.17676e-05
1.1792e-05
1.17676e-05
1.17676e-05
1.17676e-05
1.17676e-05
1.17676e-05
1.17676e-05
1.17676e-05
1.1792e-05
1.1792e-05
1.1792e-05
1.1792e-05
1.1792e-05
1.1792e-05
1.1792e-05
1.1792e-05
1.1792e-05
1.1792e-05
1.1792e-05
1.1792e-05
1.18164e-05
1.18164e-05
1.18164e-05
1.18408e-05
1.18408e-05
1.18652e-05
1.18408e-05
1.18652e-05
1.18652e-05
1.18652e-05
1.18652e-05
1.18652e-05
1.18896e-05
1.18652e-05
1.18652e-05
1.18652e-05
1.18652e-05
1.18652e-05
1.18652e-05
1.18652e-05
1.18652e-05
1.18652e-05
1.18652e-05
1.18652e-05
1.18652e-05
1.18652e-05
1.18652e-05
1.18652e-05
1.18896e-05
1.18652e-05
1.18652e-05
1.18652e-05
1.18652e-05
1.18652e-05
1.18652e-05
1.18652e-05
1.18652e-05
1.18652e-05
1.18652e-05
1.18652e-05
1.18652e-05
1.18652e-05
1.18652e-05
1.18652e-05
1.18896e-05
1.18652e-05
1.18652e-05
1.18652e-05
1.18896e-05
1.18652e-05
1.18652e-05
1.18652e-05
1.18652e-05
1.18652e-05
1.18652e-05
1.18652e-05
1.18652e-05
1.18652e-05
1.18652e-05
1.18652e-05
1.18652e-05
1.18652e-05
1.18652e-05
1.18652e-05
1.18652e-05
1.18652e-05
1.18652e-05
1.18652e-05
1.18652e-05
1.18652e-05
1.18652e-05
1.18652e-05
1.18652e-05
1.18652e-05
1.18652e-05
1.18652e-05
1.18652e-05
1.18652e-05
1.18652e-05
1.18652e-05
1.18652e-05
1.18652e-05
1.18652e-05
1.18652e-05
1.18652e-05
1.18652e-05
1.18652e-05
1.18652e-05
1.18652e-05
1.18652e-05
1.18652e-05
1.18652e-05
1.18652e-05
1.18652e-05
1.18652e-05
1.18652e-05
1.18652e-05
1.18652e-05
1.18652e-05
1.18652e-05
1.18652e-05
1.18652e-05
1.18408e-05
1.18408e-05
1.18652e-05
1.18408e-05
1.18408e-05
1.18408e-05
1.18408e-05
1.18408e-05
1.18408e-05
1.18408e-05
1.18408e-05
1.18408e-05
1.18408e-05
1.18408e-05
1.18408e-05
1.18408e-05
1.18164e-05
1.18164e-05
1.18164e-05
1.18164e-05
1.18164e-05
1.18164e-05
1.18164e-05
1.18164e-05
1.18164e-05
1.18164e-05
1.18164e-05
1.18164e-05
1.18164e-05
1.1792e-05
1.18164e-05
1.18164e-05
1.1792e-05
1.18164e-05
1.18164e-05
1.18164e-05
1.18164e-05
1.18164e-05
1.18164e-05
1.18164e-05
1.18164e-05
1.18164e-05
1.18164e-05
1.18164e-05
1.18164e-05
1.18164e-05
1.18164e-05
1.18164e-05
1.18164e-05
1.18164e-05
1.18164e-05
1.1792e-05
1.1792e-05
1.1792e-05
1.18164e-05
1.1792e-05
1.1792e-05
1.1792e-05
1.1792e-05
1.1792e-05
1.1792e-05
1.1792e-05
1.1792e-05
1.1792e-05
1.1792e-05
1.1792e-05
1.1792e-05
1.1792e-05
1.1792e-05
1.1792e-05
1.1792e-05
1.1792e-05
1.1792e-05
1.17676e-05
1.1792e-05
1.1792e-05
1.17676e-05
1.17676e-05
1.17676e-05
1.17676e-05
1.17676e-05
1.17676e-05
1.17676e-05
1.17676e-05
1.17676e-05
1.17676e-05
1.17676e-05
1.17676e-05
1.17676e-05
1.17676e-05
1.17676e-05
1.17432e-05
1.17432e-05
1.17432e-05
1.17432e-05
1.17432e-05
1.17432e-05
1.17432e-05
1.17432e-05
1.17432e-05
1.17432e-05
1.17432e-05
1.17432e-05
1.17432e-05
1.17432e-05
1.17432e-05
1.17432e-05
1.17432e-05
1.17432e-05
1.17432e-05
1.17432e-05
1.17432e-05
1.17432e-05
1.17432e-05
1.17432e-05
1.17188e-05
1.17188e-05
1.17188e-05
1.17432e-05
1.17432e-05
1.17188e-05
1.17188e-05
1.17188e-05
1.17432e-05
1.17188e-05
1.17188e-05
1.17188e-05
1.17188e-05
1.17188e-05
1.17188e-05
1.17188e-05
1.17188e-05
1.17188e-05
1.17188e-05
1.17188e-05
1.17188e-05
1.17188e-05
1.17188e-05
1.17188e-05
1.17188e-05
1.17188e-05
1.17188e-05
1.17188e-05
1.17188e-05
1.17188e-05
1.17188e-05
1.17188e-05
1.17188e-05
1.17188e-05
1.17188e-05
1.17188e-05
1.17188e-05
1.17188e-05
1.17188e-05
1.17188e-05
1.17188e-05
1.17188e-05
1.17188e-05
1.17188e-05
1.17188e-05
1.17188e-05
1.17188e-05
1.17188e-05
1.17188e-05
1.17188e-05
1.17188e-05
1.17188e-05
1.17188e-05
1.17188e-05
1.17188e-05
1.17188e-05
1.17188e-05
1.17188e-05
1.17188e-05
1.17188e-05
1.17188e-05
1.17188e-05
1.17188e-05
1.17188e-05
1.17188e-05
1.17188e-05
1.17188e-05
1.17188e-05
1.17188e-05
1.17188e-05
1.17188e-05
1.17188e-05
1.17188e-05
1.17188e-05
1.17188e-05
1.17188e-05
1.17188e-05
1.17188e-05
1.17188e-05
1.17188e-05
1.17188e-05
1.17188e-05
1.17188e-05
1.17188e-05
1.17188e-05
1.17188e-05
1.17188e-05
1.17188e-05
1.17188e-05
1.17188e-05
1.17188e-05
1.17188e-05
1.17188e-05
1.17188e-05
1.17188e-05
1.17188e-05
1.17188e-05
1.17188e-05
1.17188e-05
1.17188e-05
1.17188e-05
1.17188e-05
1.17188e-05
1.17188e-05
1.17188e-05
1.17188e-05
1.17188e-05
1.17188e-05
1.17188e-05
1.17188e-05
1.17188e-05
1.17188e-05
1.17188e-05
1.17188e-05
1.17188e-05
1.17188e-05
1.17188e-05
1.17188e-05
1.17188e-05
1.17188e-05
1.17188e-05
1.17188e-05
1.17188e-05
1.17188e-05
1.17188e-05
1.17188e-05
1.17188e-05
1.17432e-05
1.17188e-05
1.17188e-05
1.17188e-05
1.17188e-05
1.17188e-05
1.17188e-05
1.17188e-05
1.17188e-05
1.17188e-05
1.17188e-05
1.17188e-05
1.17188e-05
1.17188e-05
1.17188e-05
1.17188e-05
1.17432e-05
1.17188e-05
1.17188e-05
1.17188e-05
1.17188e-05
1.17188e-05
1.17188e-05
1.17188e-05
1.17188e-05
1.17188e-05
1.17188e-05
1.17188e-05
1.17188e-05
1.17188e-05
1.17188e-05
1.17188e-05
1.17188e-05
1.17188e-05
1.17188e-05
1.17188e-05
1.17188e-05
1.17188e-05
1.17188e-05
1.17188e-05
1.17188e-05
1.17188e-05
1.17188e-05
1.17188e-05
1.17188e-05
1.17188e-05
1.17188e-05
1.17188e-05
1.17188e-05
1.17188e-05
1.17188e-05
1.17188e-05
1.17188e-05
1.17188e-05
1.17188e-05
1.17188e-05
1.17188e-05
1.17188e-05
1.17188e-05
1.17188e-05
1.17188e-05
1.17188e-05
1.17188e-05
1.17188e-05
1.17188e-05
1.17188e-05
1.17188e-05
1.17188e-05
1.17188e-05
1.17188e-05
1.17188e-05
1.17188e-05
1.17188e-05
1.17188e-05
1.17188e-05
1.17188e-05
1.17188e-05
1.17188e-05
1.17188e-05
1.17188e-05
1.17188e-05
1.17188e-05
1.17188e-05
1.17188e-05
1.17188e-05
1.17188e-05
1.17188e-05
1.17188e-05
1.17188e-05
1.17432e-05
1.17188e-05
1.17188e-05
1.17188e-05
1.17188e-05
1.17188e-05
1.17188e-05
1.17188e-05
1.17188e-05
1.17188e-05
1.17188e-05
1.17188e-05
1.17188e-05
1.17188e-05
1.17188e-05
1.17432e-05
1.17432e-05
1.17432e-05
1.17432e-05
1.17432e-05
1.17432e-05
1.17432e-05
1.17432e-05
1.17432e-05
1.17432e-05
1.17432e-05
1.17432e-05
1.17432e-05
1.17432e-05
1.17432e-05
1.17432e-05
1.17676e-05
1.17676e-05
1.17432e-05
1.17676e-05
1.17676e-05
1.17676e-05
1.17676e-05
1.17676e-05
1.17676e-05
1.17676e-05
1.17676e-05
1.17676e-05
1.17676e-05
1.1792e-05
1.17676e-05
1.17676e-05
1.17676e-05
1.17676e-05
1.17676e-05
1.17676e-05
1.17676e-05
1.17676e-05
1.17676e-05
1.17676e-05
1.17676e-05
1.17676e-05
1.17676e-05
1.17676e-05
1.17676e-05
1.17676e-05
1.17676e-05
1.17676e-05
1.17432e-05
1.17432e-05
1.17676e-05
1.17676e-05
1.17676e-05
1.17676e-05
1.17676e-05
1.17676e-05
1.17676e-05
1.17676e-05
1.17676e-05
1.17676e-05
1.17676e-05
1.17676e-05
1.17676e-05
1.17676e-05
1.17676e-05
1.17676e-05
1.17676e-05
1.17676e-05
1.17676e-05
1.17676e-05
1.17676e-05
1.17676e-05
1.17676e-05
1.17676e-05
1.17676e-05
1.17676e-05
1.17676e-05
1.17676e-05
1.17676e-05
1.17676e-05
1.17676e-05
1.17676e-05
1.17676e-05
1.17676e-05
1.17676e-05
1.17676e-05
1.17676e-05
1.17676e-05
1.17676e-05
1.17676e-05
1.17676e-05
1.17432e-05
1.17432e-05
1.17432e-05
1.17432e-05
1.17432e-05
1.17432e-05
1.17432e-05
1.17432e-05
1.17432e-05
1.17676e-05
1.17432e-05
1.17432e-05
1.17432e-05
1.17432e-05
1.17432e-05
1.17432e-05
1.17432e-05
1.17432e-05
1.17432e-05
1.17432e-05
1.17432e-05
1.17432e-05
1.17432e-05
1.17432e-05
1.17432e-05
1.17432e-05
1.17432e-05
1.17432e-05
1.17432e-05
1.17432e-05
1.17432e-05
1.17432e-05
1.17432e-05
1.17432e-05
1.17432e-05
1.17432e-05
1.17432e-05
1.17432e-05
1.17432e-05
1.17432e-05
1.17432e-05
1.17432e-05
1.17432e-05
1.17432e-05
1.17432e-05
1.17432e-05
1.17432e-05
1.17432e-05
1.17432e-05
1.17432e-05
1.17432e-05
1.17432e-05
1.17432e-05
1.17432e-05
1.17432e-05
1.17432e-05
1.17432e-05
1.17432e-05
1.17432e-05
1.17432e-05
1.17432e-05
1.17432e-05
1.17432e-05
1.17432e-05
1.17432e-05
1.17432e-05
1.17432e-05
1.17432e-05
1.17432e-05
1.17432e-05
1.17432e-05
1.17432e-05
1.17432e-05
1.17432e-05
1.17432e-05
1.17432e-05
1.17432e-05
1.17432e-05
1.17432e-05
1.17432e-05
1.17432e-05
1.17432e-05
1.17432e-05
1.17432e-05
1.17432e-05
1.17432e-05
1.17432e-05
1.17432e-05
1.17432e-05
1.17432e-05
1.17432e-05
1.17432e-05
1.17432e-05
1.17432e-05
1.17432e-05
1.17432e-05
1.17432e-05
1.17432e-05
1.17432e-05
1.17432e-05
1.17432e-05
1.17432e-05
1.17432e-05
1.17432e-05
1.17432e-05
1.17432e-05
1.17432e-05
1.17432e-05
1.17432e-05
1.17432e-05
1.17432e-05
1.17432e-05
1.17432e-05
1.17432e-05
1.17432e-05
1.17432e-05
1.17432e-05
1.17432e-05
1.17432e-05
1.17188e-05
1.17188e-05
1.17432e-05
1.17432e-05
1.17432e-05
1.17432e-05
1.17432e-05
1.17432e-05
1.17432e-05
1.17432e-05
1.17432e-05
1.17432e-05
1.17432e-05
1.17432e-05
1.17432e-05
1.17432e-05
1.17432e-05
1.17432e-05
1.17432e-05
1.17432e-05
1.17432e-05
1.17432e-05
1.17432e-05
1.17432e-05
1.17432e-05
1.17676e-05
1.17432e-05
1.17432e-05
1.17676e-05
1.17676e-05
1.17676e-05
1.17676e-05
1.17676e-05
1.17676e-05
1.17676e-05
1.17676e-05
1.17676e-05
1.17676e-05
1.17676e-05
1.17676e-05
1.1792e-05
1.1792e-05
1.17676e-05
1.1792e-05
1.1792e-05
1.1792e-05
1.1792e-05
1.1792e-05
1.1792e-05
1.1792e-05
1.1792e-05
1.1792e-05
1.1792e-05
1.1792e-05
1.1792e-05
1.1792e-05
1.18164e-05
1.18164e-05
1.18164e-05
1.18164e-05
1.18164e-05
1.18164e-05
1.18164e-05
1.18408e-05
1.18408e-05
1.18408e-05
1.18408e-05
1.18408e-05
1.18408e-05
1.18408e-05
1.18652e-05
1.18652e-05
1.18652e-05
1.18652e-05
1.18652e-05
1.18652e-05
1.18652e-05
1.18652e-05
1.18652e-05
1.18652e-05
1.18652e-05
1.18652e-05
1.18896e-05
1.18896e-05
1.18896e-05
1.18896e-05
1.18896e-05
1.18896e-05
1.18896e-05
1.18896e-05
1.18896e-05
1.18896e-05
1.18896e-05
1.18896e-05
1.18896e-05
1.18896e-05
1.18896e-05
1.18896e-05
1.18896e-05
1.18896e-05
1.18896e-05
1.18896e-05
1.19141e-05
1.19141e-05
1.18896e-05
1.18896e-05
1.18896e-05
1.18896e-05
1.19141e-05
1.19141e-05
1.19141e-05
1.19141e-05
1.19141e-05
1.19141e-05
1.19141e-05
1.19141e-05
1.19141e-05
1.19141e-05
1.19385e-05
1.19385e-05
1.19141e-05
1.19141e-05
1.19385e-05
1.19385e-05
1.19385e-05
1.19141e-05
1.19385e-05
1.19385e-05
1.19385e-05
1.19141e-05
1.19385e-05
1.19385e-05
1.19385e-05
1.19385e-05
1.19385e-05
1.19385e-05
1.19385e-05
1.19385e-05
1.19385e-05
1.19385e-05
1.19385e-05
1.19385e-05
1.19385e-05
1.19385e-05
1.19385e-05
1.19385e-05
1.19385e-05
1.19385e-05
1.19385e-05
1.19385e-05
1.19385e-05
1.19385e-05
1.19385e-05
1.19385e-05
1.19385e-05
1.19385e-05
1.19385e-05
1.19385e-05
1.19385e-05
1.19385e-05
1.19385e-05
1.19385e-05
1.19385e-05
1.19385e-05
1.19385e-05
1.19385e-05
1.19385e-05
1.19385e-05
1.19385e-05
1.19385e-05
1.19385e-05
1.19385e-05
1.19385e-05
1.19385e-05
1.19385e-05
1.19385e-05
1.19385e-05
1.19385e-05
1.19385e-05
1.19385e-05
1.19385e-05
1.19385e-05
1.19385e-05
1.19385e-05
1.19385e-05
1.19385e-05
1.19385e-05
1.19385e-05
1.19385e-05
1.19385e-05
1.19385e-05
1.19385e-05
1.19385e-05
1.19385e-05
1.19385e-05
1.19385e-05
1.19385e-05
1.19385e-05
1.19385e-05
1.19385e-05
1.19385e-05
1.19141e-05
1.19385e-05
1.19385e-05
1.19385e-05
1.19141e-05
1.19385e-05
1.19141e-05
1.19141e-05
1.19141e-05
1.19141e-05
1.19141e-05
1.19141e-05
1.19141e-05
1.19141e-05
1.19141e-05
1.19141e-05
1.19141e-05
1.19141e-05
1.19141e-05
1.19141e-05
1.19141e-05
1.19141e-05
1.19141e-05
1.19141e-05
1.19141e-05
1.19141e-05
1.19141e-05
1.19141e-05
1.18896e-05
1.18896e-05
1.19141e-05
1.18896e-05
1.18896e-05
1.18896e-05
1.18896e-05
1.18896e-05
1.18896e-05
1.18896e-05
1.18896e-05
1.18896e-05
1.18896e-05
1.18896e-05
1.18896e-05
1.18896e-05
1.18896e-05
1.18896e-05
1.18896e-05
1.18896e-05
1.18896e-05
1.18896e-05
1.18896e-05
1.18896e-05
1.18896e-05
1.18896e-05
1.18896e-05
1.18896e-05
1.18896e-05
1.18896e-05
1.18896e-05
1.18896e-05
1.18896e-05
1.18896e-05
1.18896e-05
1.18896e-05
1.18896e-05
1.18896e-05
1.18896e-05
1.18896e-05
1.18896e-05
1.18896e-05
1.18896e-05
1.18896e-05
1.18896e-05
1.18896e-05
1.18896e-05
1.18896e-05
1.18896e-05
1.18896e-05
1.18896e-05
1.18896e-05
1.18896e-05
1.18896e-05
1.18896e-05
1.18896e-05
1.18896e-05
1.18896e-05
1.18896e-05
1.18896e-05
1.18896e-05
1.18896e-05
1.18896e-05
1.18896e-05
1.18896e-05
1.18896e-05
1.18896e-05
1.18896e-05
1.18896e-05
1.18896e-05
1.18896e-05
1.18896e-05
1.18896e-05
1.18896e-05
1.18896e-05
1.18896e-05
1.18896e-05
1.18896e-05
1.19141e-05
1.18896e-05
1.18896e-05
1.19141e-05
1.19141e-05
1.19141e-05
1.19141e-05
1.19141e-05
1.19141e-05
1.19141e-05
1.19141e-05
1.19141e-05
1.19141e-05
1.19141e-05
1.19141e-05
1.19385e-05
1.19385e-05
1.19385e-05
1.19385e-05
1.19629e-05
1.19629e-05
1.19629e-05
1.19629e-05
1.19873e-05
1.19873e-05
1.19873e-05
1.19873e-05
1.19873e-05
1.19873e-05
1.20117e-05
1.20117e-05
1.20117e-05
1.20117e-05
1.20117e-05
1.20117e-05
1.20361e-05
1.20361e-05
1.20605e-05
1.20605e-05
1.20605e-05
1.20605e-05
1.2085e-05
1.2085e-05
1.2085e-05
1.2085e-05
1.21094e-05
1.21094e-05
1.21094e-05
1.21094e-05
1.21094e-05
1.21338e-05
1.21338e-05
1.21338e-05
1.21338e-05
1.21582e-05
1.21582e-05
1.21826e-05
1.21826e-05
1.21826e-05
1.21826e-05
1.21826e-05
1.2207e-05
1.2207e-05
1.2207e-05
1.2207e-05
1.2207e-05
1.2207e-05
1.22314e-05
1.22314e-05
1.22314e-05
1.22559e-05
1.22559e-05
1.22559e-05
1.22803e-05
1.22803e-05
1.22803e-05
1.22803e-05
1.22803e-05
1.23047e-05
1.23047e-05
1.23047e-05
1.23047e-05
1.23047e-05
1.23047e-05
1.23047e-05
1.23291e-05
1.23291e-05
1.23291e-05
1.23291e-05
1.23291e-05
1.23291e-05
1.23291e-05
1.23291e-05
1.23291e-05
1.23291e-05
1.23535e-05
1.23535e-05
1.23535e-05
1.23535e-05
1.23779e-05
1.23535e-05
1.23535e-05
1.23779e-05
1.23779e-05
1.23779e-05
1.23779e-05
1.23779e-05
1.23779e-05
1.24023e-05
1.24023e-05
1.24023e-05
1.24023e-05
1.24023e-05
1.24023e-05
1.24023e-05
1.24023e-05
1.24268e-05
1.24023e-05
1.24023e-05
1.24023e-05
1.24023e-05
1.24268e-05
1.24268e-05
1.24268e-05
1.24512e-05
1.24512e-05
1.24512e-05
1.24512e-05
1.24512e-05
1.24512e-05
1.24512e-05
1.24512e-05
1.24512e-05
1.24512e-05
1.24512e-05
1.24512e-05
1.24512e-05
1.24512e-05
1.24512e-05
1.24756e-05
1.24756e-05
1.24512e-05
1.24756e-05
1.24756e-05
1.24756e-05
1.24756e-05
1.24512e-05
1.24756e-05
1.24756e-05
1.24756e-05
1.24756e-05
1.24756e-05
1.24756e-05
1.24756e-05
1.24756e-05
1.24756e-05
1.24756e-05
1.24756e-05
1.24756e-05
1.24756e-05
1.24756e-05
1.24756e-05
1.24756e-05
1.24756e-05
1.24756e-05
1.24756e-05
1.24756e-05
1.24756e-05
1.24756e-05
1.24756e-05
1.24756e-05
1.24756e-05
1.24756e-05
1.24756e-05
1.24756e-05
1.24756e-05
1.24756e-05
1.24756e-05
1.24756e-05
1.24756e-05
1.24756e-05
1.24756e-05
1.24756e-05
1.25e-05
1.24756e-05
1.24756e-05
1.24756e-05
1.24756e-05
1.24756e-05
1.24756e-05
1.24756e-05
1.24756e-05
1.24756e-05
1.24756e-05
1.24756e-05
1.24756e-05
1.24756e-05
1.24756e-05
1.24756e-05
1.24756e-05
1.24512e-05
1.24756e-05
1.24756e-05
1.24756e-05
1.24512e-05
1.24512e-05
1.24512e-05
1.24512e-05
1.24512e-05
1.24512e-05
1.24512e-05
1.24512e-05
1.24512e-05
1.24512e-05
1.24512e-05
1.24512e-05
1.24512e-05
1.24512e-05
1.24512e-05
1.24512e-05
1.24512e-05
1.24512e-05
1.24512e-05
1.24512e-05
1.24512e-05
1.24512e-05
1.24512e-05
1.24512e-05
1.24512e-05
1.24512e-05
1.24512e-05
1.24512e-05
1.24756e-05
1.24756e-05
1.24512e-05
1.24512e-05
1.24756e-05
1.24756e-05
1.24512e-05
1.24512e-05
1.24512e-05
1.24512e-05
1.24512e-05
1.24512e-05
1.24512e-05
1.24512e-05
1.24512e-05
1.24512e-05
1.24512e-05
1.24512e-05
1.24512e-05
1.24512e-05
1.24512e-05
1.24512e-05
1.24756e-05
1.24512e-05
1.24756e-05
1.24512e-05
1.24756e-05
1.24756e-05
1.24756e-05
1.24756e-05
1.24756e-05
1.24512e-05
1.24756e-05
1.24756e-05
1.24756e-05
1.24756e-05
1.24756e-05
1.24756e-05
1.24756e-05
1.24756e-05
1.24756e-05
1.24512e-05
1.24512e-05
1.24512e-05
1.24512e-05
1.24512e-05
1.24512e-05
1.24756e-05
1.24756e-05
1.24512e-05
1.24512e-05
1.24756e-05
1.24756e-05
1.24756e-05
1.24512e-05
1.24512e-05
1.24512e-05
1.24512e-05
1.24512e-05
1.24512e-05
1.24512e-05
1.24512e-05
1.24512e-05
1.24512e-05
1.24512e-05
1.24512e-05
1.24512e-05
1.24512e-05
1.24512e-05
1.24512e-05
1.24512e-05
1.24512e-05
1.24512e-05
1.24512e-05
1.24512e-05
1.24512e-05
1.24512e-05
1.24268e-05
1.24512e-05
1.24512e-05
1.24268e-05
1.24268e-05
1.24268e-05
1.24268e-05
1.24268e-05
1.24268e-05
1.24268e-05
1.24268e-05
1.24268e-05
1.24268e-05
1.24023e-05
1.24268e-05
1.24023e-05
1.24023e-05
1.24023e-05
1.24023e-05
1.24023e-05
1.24023e-05
1.24023e-05
1.24023e-05
1.24023e-05
1.24023e-05
1.24023e-05
1.24023e-05
1.24023e-05
1.24023e-05
1.24023e-05
1.24023e-05
1.24023e-05
1.24023e-05
1.24023e-05
1.24023e-05
1.23779e-05
1.23779e-05
1.23779e-05
1.23779e-05
1.23779e-05
1.23779e-05
1.23779e-05
1.23779e-05
1.23779e-05
1.23779e-05
1.23779e-05
1.23779e-05
1.23779e-05
1.23779e-05
1.23535e-05
1.23535e-05
1.23779e-05
1.23535e-05
1.23535e-05
1.23535e-05
1.23535e-05
1.23535e-05
1.23535e-05
1.23535e-05
1.23535e-05
1.23535e-05
1.23535e-05
1.23535e-05
1.23535e-05
1.23535e-05
1.23535e-05
1.23535e-05
1.23535e-05
1.23291e-05
1.23291e-05
1.23291e-05
1.23291e-05
1.23291e-05
1.23291e-05
1.23291e-05
1.23291e-05
1.23291e-05
1.23291e-05
1.23291e-05
1.23291e-05
1.23291e-05
1.23291e-05
1.23291e-05
1.23291e-05
1.23291e-05
1.23291e-05
1.23291e-05
1.23291e-05
1.23291e-05
1.23047e-05
1.23047e-05
1.23047e-05
1.23047e-05
1.23047e-05
1.23047e-05
1.23047e-05
1.23047e-05
1.23047e-05
1.23047e-05
1.23047e-05
1.23047e-05
1.23047e-05
1.23047e-05
1.23047e-05
1.23047e-05
1.23047e-05
1.23047e-05
1.23047e-05
1.23047e-05
1.23047e-05
1.23047e-05
1.23047e-05
1.23047e-05
1.23047e-05
1.23047e-05
1.23047e-05
1.23047e-05
1.23047e-05
1.23047e-05
1.23047e-05
1.22803e-05
1.22803e-05
1.22803e-05
1.22803e-05
1.22803e-05
1.22803e-05
1.22803e-05
1.22803e-05
1.22803e-05
1.22803e-05
1.22803e-05
1.22803e-05
1.22803e-05
1.22803e-05
1.22803e-05
1.22803e-05
1.22803e-05
1.22803e-05
1.22803e-05
1.22803e-05
1.22803e-05
1.22803e-05
1.22803e-05
1.22803e-05
1.22803e-05
1.22803e-05
1.22559e-05
1.22803e-05
1.22803e-05
1.22803e-05
1.22803e-05
1.22803e-05
1.22803e-05
1.22803e-05
1.22559e-05
1.22803e-05
1.22559e-05
1.22559e-05
1.22559e-05
1.22559e-05
1.22559e-05
1.22559e-05
1.22559e-05
1.22559e-05
1.22559e-05
1.22559e-05
1.22559e-05
1.22559e-05
1.22559e-05
1.22559e-05
1.22559e-05
1.22559e-05
1.22314e-05
1.22314e-05
1.22314e-05
1.22314e-05
1.22314e-05
1.22314e-05
1.22314e-05
1.22314e-05
1.22314e-05
1.22314e-05
1.22314e-05
1.22314e-05
1.22314e-05
1.22314e-05
1.22314e-05
1.22314e-05
1.22314e-05
1.22314e-05
1.22314e-05
1.22314e-05
1.22314e-05
1.2207e-05
1.22314e-05
1.22314e-05
1.22314e-05
1.2207e-05
1.2207e-05
1.22314e-05
1.2207e-05
1.2207e-05
1.2207e-05
1.2207e-05
1.2207e-05
1.2207e-05
1.2207e-05
1.2207e-05
1.2207e-05
1.2207e-05
1.2207e-05
1.2207e-05
1.2207e-05
1.2207e-05
1.2207e-05
1.2207e-05
1.2207e-05
1.2207e-05
1.21826e-05
1.2207e-05
1.2207e-05
1.2207e-05
1.2207e-05
1.2207e-05
1.21826e-05
1.21826e-05
1.21826e-05
1.21826e-05
1.21826e-05
1.21826e-05
1.21826e-05
1.21826e-05
1.21826e-05
1.21826e-05
1.21826e-05
1.21826e-05
1.21826e-05
1.21826e-05
1.21826e-05
1.21826e-05
1.21826e-05
1.21826e-05
1.21826e-05
1.21826e-05
1.21826e-05
1.21826e-05
1.21826e-05
1.21826e-05
1.21826e-05
1.21826e-05
1.21826e-05
1.21826e-05
1.21826e-05
1.21826e-05
1.21826e-05
1.21826e-05
1.21826e-05
1.21826e-05
1.21826e-05
1.21826e-05
1.21826e-05
1.21826e-05
1.21826e-05
1.21826e-05
1.21826e-05
1.21826e-05
1.21582e-05
1.21826e-05
1.21826e-05
1.21826e-05
1.21582e-05
1.21826e-05
1.21826e-05
1.21582e-05
1.21582e-05
1.21826e-05
1.21826e-05
1.21582e-05
1.21582e-05
1.21582e-05
1.21582e-05
1.21582e-05
1.21582e-05
1.21582e-05
1.21826e-05
1.21582e-05
1.21582e-05
1.21826e-05
1.21582e-05
1.21582e-05
1.21582e-05
1.21582e-05
1.21582e-05
1.21582e-05
1.21582e-05
1.21582e-05
1.21582e-05
1.21582e-05
1.21582e-05
1.21582e-05
1.21582e-05
1.21582e-05
1.21582e-05
1.21582e-05
1.21582e-05
1.21582e-05
1.21582e-05
1.21582e-05
1.21582e-05
1.21582e-05
1.21582e-05
1.21582e-05
1.21582e-05
1.21582e-05
1.21582e-05
1.21582e-05
1.21582e-05
1.21582e-05
1.21582e-05
1.21582e-05
1.21582e-05
1.21582e-05
1.21582e-05
1.21582e-05
1.21582e-05
1.21582e-05
1.21582e-05
1.21582e-05
1.21582e-05
1.21582e-05
1.21582e-05
1.21582e-05
1.21582e-05
1.21338e-05
1.21582e-05
1.21582e-05
1.21582e-05
1.21582e-05
1.21582e-05
1.21582e-05
1.21582e-05
1.21582e-05
1.21582e-05
1.21582e-05
1.21582e-05
1.21582e-05
1.21582e-05
1.21582e-05
1.21582e-05
1.21582e-05
1.21582e-05
1.21582e-05
1.21582e-05
1.21582e-05
1.21582e-05
1.21826e-05
1.21582e-05
1.21582e-05
1.21582e-05
1.21826e-05
1.21826e-05
1.21826e-05
1.21582e-05
1.21826e-05
1.21826e-05
1.21826e-05
1.21826e-05
1.21826e-05
1.21826e-05
1.21826e-05
1.21826e-05
1.21826e-05
1.21826e-05
1.21826e-05
1.21826e-05
1.21826e-05
1.21826e-05
1.21826e-05
1.21826e-05
1.21826e-05
1.21826e-05
1.21826e-05
1.21826e-05
1.21826e-05
1.21826e-05
1.21826e-05
1.21826e-05
1.21826e-05
1.2207e-05
1.2207e-05
1.21826e-05
1.2207e-05
1.2207e-05
1.2207e-05
1.2207e-05
1.2207e-05
1.2207e-05
1.2207e-05
1.2207e-05
1.2207e-05
1.2207e-05
1.2207e-05
1.2207e-05
1.2207e-05
1.2207e-05
1.2207e-05
1.2207e-05
1.22314e-05
1.22314e-05
1.2207e-05
1.2207e-05
1.22314e-05
1.22314e-05
1.22314e-05
1.22314e-05
1.22314e-05
1.22314e-05
1.22314e-05
1.22314e-05
1.22314e-05
1.22314e-05
1.22314e-05
1.22314e-05
1.22314e-05
1.22559e-05
1.22314e-05
1.22314e-05
1.22314e-05
1.22559e-05
1.22559e-05
1.22559e-05
1.22559e-05
1.22314e-05
1.22314e-05
1.22314e-05
1.22559e-05
1.22314e-05
1.22314e-05
1.22314e-05
1.22559e-05
1.22559e-05
1.22559e-05
1.22559e-05
1.22559e-05
1.22559e-05
1.22559e-05
1.22559e-05
1.22559e-05
1.22559e-05
1.22559e-05
1.22559e-05
1.22803e-05
1.22559e-05
1.22559e-05
1.22559e-05
1.22803e-05
1.22803e-05
1.22803e-05
1.22559e-05
1.22803e-05
1.22803e-05
1.22803e-05
1.22803e-05
1.22803e-05
1.22803e-05
1.22803e-05
1.22803e-05
1.22803e-05
1.22803e-05
1.22803e-05
1.22803e-05
1.23047e-05
1.22803e-05
1.22803e-05
1.22803e-05
1.23047e-05
1.23047e-05
1.23047e-05
1.23047e-05
1.23047e-05
1.23047e-05
1.23047e-05
1.23047e-05
1.23047e-05
1.23047e-05
1.23047e-05
1.23291e-05
1.23291e-05
1.23291e-05
1.23291e-05
1.23535e-05
1.23535e-05
1.23535e-05
1.23535e-05
1.23779e-05
1.23779e-05
1.23779e-05
1.23779e-05
1.23779e-05
1.24023e-05
1.24023e-05
1.24023e-05
1.24023e-05
1.24023e-05
1.24023e-05
1.24023e-05
1.24268e-05
1.24268e-05
1.24268e-05
1.24512e-05
1.24512e-05
1.24756e-05
1.24756e-05
1.24512e-05
1.24756e-05
1.25e-05
1.25e-05
1.25e-05
1.25e-05
1.25244e-05
1.25244e-05
1.25e-05
1.25244e-05
1.25244e-05
1.25244e-05
1.25244e-05
1.25488e-05
1.25488e-05
1.25732e-05
1.25732e-05
1.25732e-05
1.25732e-05
1.25732e-05
1.25732e-05
1.25732e-05
1.25732e-05
1.25732e-05
1.25732e-05
1.25977e-05
1.25977e-05
1.25977e-05
1.25977e-05
1.26221e-05
1.26465e-05
1.26465e-05
1.26465e-05
1.26465e-05
1.26465e-05
1.26465e-05
1.26465e-05
1.26709e-05
1.26709e-05
1.26709e-05
1.26709e-05
1.26709e-05
1.26709e-05
1.26709e-05
1.26709e-05
1.26709e-05
1.26953e-05
1.26953e-05
1.26709e-05
1.26953e-05
1.26953e-05
1.26953e-05
1.26953e-05
1.26953e-05
1.26953e-05
1.26953e-05
1.26953e-05
1.27197e-05
1.27197e-05
1.27197e-05
1.26953e-05
1.27197e-05
1.27197e-05
1.27197e-05
1.27197e-05
1.27197e-05
1.27197e-05
1.27197e-05
1.27197e-05
1.27197e-05
1.27197e-05
1.27197e-05
1.27197e-05
1.27197e-05
1.27197e-05
1.27197e-05
1.27197e-05
1.27197e-05
1.27441e-05
1.27197e-05
1.27441e-05
1.27441e-05
1.27441e-05
1.27441e-05
1.27441e-05
1.27441e-05
1.27197e-05
1.27441e-05
1.27441e-05
1.27441e-05
1.27441e-05
1.27441e-05
1.27441e-05
1.27197e-05
1.27441e-05
1.27441e-05
1.27441e-05
1.27441e-05
1.27441e-05
1.27441e-05
1.27441e-05
1.27441e-05
1.27686e-05
1.27441e-05
1.27441e-05
1.27441e-05
1.27441e-05
1.27441e-05
1.27441e-05
1.27441e-05
1.27441e-05
1.27441e-05
1.27441e-05
1.27441e-05
1.27441e-05
1.27441e-05
1.27441e-05
1.27441e-05
1.27686e-05
1.27441e-05
1.27441e-05
1.27441e-05
1.27441e-05
1.27197e-05
1.27441e-05
1.27197e-05
1.27441e-05
1.27441e-05
1.27441e-05
1.27441e-05
1.27441e-05
1.27441e-05
1.27441e-05
1.27197e-05
1.27441e-05
1.27441e-05
1.27441e-05
1.27197e-05
1.27441e-05
1.27441e-05
1.27441e-05
1.27197e-05
1.27441e-05
1.27441e-05
1.27441e-05
1.27197e-05
1.27197e-05
1.27441e-05
1.27441e-05
1.27197e-05
1.27441e-05
1.27441e-05
1.27441e-05
1.27441e-05
1.27441e-05
1.27441e-05
1.27441e-05
1.27441e-05
1.27686e-05
1.27441e-05
1.27686e-05
1.27441e-05
1.27686e-05
1.27686e-05
1.27686e-05
1.27441e-05
1.27686e-05
1.27686e-05
1.27686e-05
1.27686e-05
1.27686e-05
1.27686e-05
1.27686e-05
1.27441e-05
1.27686e-05
1.27686e-05
1.27686e-05
1.27686e-05
1.27686e-05
1.27686e-05
1.27686e-05
1.27686e-05
1.27686e-05
1.27686e-05
1.27686e-05
1.27686e-05
1.27686e-05
1.27686e-05
1.27686e-05
1.27686e-05
1.27686e-05
1.27686e-05
1.27686e-05
1.27686e-05
1.27686e-05
1.27686e-05
1.27686e-05
1.27441e-05
1.27686e-05
1.27686e-05
1.27686e-05
1.27441e-05
1.27686e-05
1.27686e-05
1.27686e-05
1.27441e-05
1.27686e-05
1.27686e-05
1.27686e-05
1.27441e-05
1.27686e-05
1.27686e-05
1.27441e-05
1.27441e-05
1.27686e-05
1.27686e-05
1.27686e-05
1.27441e-05
1.27686e-05
1.27686e-05
1.27441e-05
1.27441e-05
1.27441e-05
1.27441e-05
1.27441e-05
1.27441e-05
1.27686e-05
1.27686e-05
1.27686e-05
1.27686e-05
1.27686e-05
1.27686e-05
1.27686e-05
1.27686e-05
1.2793e-05
1.2793e-05
1.27686e-05
1.2793e-05
1.2793e-05
1.2793e-05
1.27686e-05
1.2793e-05
1.2793e-05
1.2793e-05
1.27686e-05
1.2793e-05
1.2793e-05
1.2793e-05
1.27686e-05
1.27686e-05
1.2793e-05
1.27686e-05
1.27686e-05
1.27686e-05
1.27686e-05
1.27686e-05
1.27686e-05
1.27686e-05
1.27686e-05
1.27686e-05
1.27686e-05
1.27686e-05
1.27686e-05
1.27686e-05
1.27441e-05
1.27686e-05
1.27686e-05
1.27686e-05
1.27441e-05
1.27686e-05
1.27686e-05
1.27441e-05
1.27197e-05
1.27441e-05
1.27441e-05
1.27441e-05
1.27197e-05
1.27441e-05
1.27441e-05
1.27441e-05
1.27197e-05
1.27441e-05
1.27441e-05
1.27441e-05
1.27197e-05
1.27197e-05
1.27197e-05
1.27197e-05
1.27197e-05
1.27197e-05
1.27197e-05
1.27197e-05
1.26953e-05
1.27197e-05
1.27197e-05
1.27197e-05
1.26953e-05
1.27197e-05
1.27197e-05
1.27197e-05
1.26953e-05
1.26953e-05
1.26953e-05
1.26953e-05
1.26953e-05
1.26953e-05
1.26953e-05
1.26953e-05
1.26709e-05
1.26953e-05
1.26953e-05
1.26953e-05
1.26709e-05
1.26709e-05
1.26953e-05
1.26709e-05
1.26709e-05
1.26709e-05
1.26953e-05
1.26709e-05
1.26709e-05
1.26709e-05
1.26709e-05
1.26709e-05
1.26709e-05
1.26709e-05
1.26709e-05
1.26709e-05
1.26709e-05
1.26709e-05
1.26709e-05
1.26709e-05
1.26465e-05
1.26709e-05
1.26709e-05
1.26709e-05
1.26465e-05
1.26709e-05
1.26709e-05
1.26709e-05
1.26465e-05
1.26465e-05
1.26465e-05
1.26465e-05
1.26465e-05
1.26465e-05
1.26465e-05
1.26465e-05
1.26465e-05
1.26465e-05
1.26465e-05
1.26465e-05
1.26221e-05
1.26465e-05
1.26465e-05
1.26465e-05
1.26221e-05
1.26465e-05
1.26465e-05
1.26465e-05
1.26221e-05
1.26465e-05
1.26465e-05
1.26465e-05
1.26221e-05
1.26221e-05
1.26465e-05
1.26465e-05
1.26465e-05
1.26465e-05
1.26221e-05
1.26221e-05
1.25977e-05
1.26221e-05
1.26221e-05
1.26221e-05
1.25977e-05
1.26221e-05
1.26221e-05
1.26221e-05
1.26221e-05
1.26221e-05
1.26221e-05
1.26221e-05
1.26221e-05
1.26221e-05
1.26221e-05
1.26221e-05
1.25977e-05
1.26221e-05
1.26221e-05
1.26221e-05
1.25977e-05
1.26221e-05
1.26221e-05
1.26221e-05
1.25977e-05
1.26221e-05
1.26221e-05
1.26221e-05
1.25977e-05
1.26221e-05
1.26221e-05
1.26221e-05
1.26221e-05
1.26221e-05
1.26221e-05
1.26221e-05
1.25977e-05
1.26221e-05
1.26221e-05
1.26221e-05
1.26221e-05
1.26221e-05
1.26221e-05
1.26221e-05
1.26221e-05
1.26221e-05
1.26465e-05
1.26465e-05
1.26221e-05
1.26465e-05
1.26221e-05
1.26221e-05
1.25977e-05
1.26221e-05
1.26465e-05
1.26465e-05
1.26465e-05
1.26465e-05
1.26465e-05
1.26221e-05
1.26465e-05
1.26465e-05
1.26465e-05
1.26465e-05
1.26465e-05
1.26465e-05
1.26465e-05
1.26465e-05
1.26465e-05
1.26465e-05
1.26709e-05
1.26465e-05
1.26709e-05
1.26465e-05
1.26709e-05
1.26465e-05
1.26709e-05
1.26709e-05
1.26709e-05
1.26465e-05
1.26709e-05
1.26709e-05
1.26709e-05
1.26465e-05
1.26709e-05
1.26709e-05
1.26709e-05
1.26709e-05
1.26709e-05
1.26709e-05
1.26709e-05
1.26465e-05
1.26709e-05
1.26709e-05
1.26709e-05
1.26709e-05
1.26709e-05
1.26709e-05
1.26709e-05
1.26709e-05
1.26709e-05
1.26709e-05
1.26709e-05
1.26709e-05
1.26709e-05
1.26709e-05
1.26709e-05
1.26709e-05
1.26709e-05
1.26709e-05
1.26709e-05
1.26709e-05
1.26709e-05
1.26953e-05
1.26953e-05
1.26709e-05
1.26953e-05
1.26953e-05
1.26953e-05
1.26709e-05
1.26953e-05
1.26953e-05
1.26953e-05
1.26709e-05
1.26953e-05
1.26709e-05
1.26709e-05
1.26709e-05
1.26709e-05
1.26953e-05
1.26953e-05
1.26709e-05
1.26953e-05
1.26709e-05
1.26953e-05
1.26709e-05
1.26709e-05
1.26709e-05
1.26953e-05
1.26709e-05
1.26709e-05
1.26709e-05
1.26709e-05
1.26709e-05
1.26709e-05
1.26709e-05
1.26709e-05
1.26709e-05
1.26709e-05
1.26953e-05
1.26709e-05
1.26709e-05
1.26709e-05
1.26709e-05
1.26709e-05
1.26709e-05
1.26709e-05
1.26709e-05
1.26709e-05
1.26709e-05
1.26709e-05
1.26709e-05
1.26709e-05
1.26709e-05
1.26709e-05
1.26709e-05
1.26709e-05
1.26709e-05
1.26709e-05
1.26709e-05
1.26709e-05
1.26709e-05
1.26709e-05
1.26709e-05
1.26709e-05
1.26709e-05
1.26709e-05
1.26709e-05
1.26709e-05
1.26709e-05
1.26709e-05
1.26709e-05
1.26709e-05
1.26709e-05
1.26709e-05
1.26709e-05
1.26709e-05
1.26709e-05
1.26709e-05
1.26709e-05
1.26709e-05
1.26709e-05
1.26709e-05
1.26709e-05
1.26709e-05
1.26709e-05
1.26709e-05
1.26709e-05
1.26709e-05
1.26709e-05
1.26709e-05
1.26709e-05
1.26709e-05
1.26709e-05
1.26709e-05
1.26709e-05
1.26709e-05
1.26709e-05
1.26709e-05
1.26709e-05
1.26709e-05
1.26709e-05
1.26709e-05
1.26709e-05
1.26709e-05
1.26709e-05
1.26709e-05
1.26709e-05
1.26709e-05
1.26709e-05
1.26709e-05
1.26709e-05
1.26709e-05
1.26709e-05
1.26709e-05
1.26709e-05
1.26709e-05
1.26709e-05
1.26709e-05
1.26709e-05
1.26709e-05
1.26709e-05
1.26709e-05
1.26709e-05
1.26709e-05
1.26709e-05
1.26709e-05
1.26709e-05
1.26709e-05
1.26709e-05
1.26709e-05
1.26709e-05
1.26709e-05
1.26709e-05
1.26709e-05
1.26709e-05
1.26709e-05
1.26709e-05
1.26709e-05
1.26709e-05
1.26709e-05
1.26709e-05
1.26709e-05
1.26709e-05
1.26709e-05
1.26709e-05
1.26465e-05
1.26709e-05
1.26709e-05
1.26709e-05
1.26709e-05
1.26709e-05
1.26709e-05
1.26709e-05
1.26709e-05
1.26709e-05
1.26709e-05
1.26709e-05
1.26709e-05
1.26709e-05
1.26709e-05
1.26709e-05
1.26465e-05
1.26709e-05
1.26709e-05
1.26709e-05
1.26465e-05
1.26709e-05
1.26709e-05
1.26709e-05
1.26465e-05
1.26709e-05
1.26709e-05
1.26709e-05
1.26465e-05
1.26709e-05
1.26709e-05
1.26709e-05
1.26465e-05
1.26465e-05
1.26709e-05
1.26465e-05
1.26465e-05
1.26465e-05
1.26465e-05
1.26465e-05
1.26465e-05
1.26465e-05
1.26465e-05
1.26465e-05
1.26465e-05
1.26465e-05
1.26465e-05
1.26465e-05
1.26465e-05
1.26465e-05
1.26465e-05
1.26465e-05
1.26221e-05
1.26465e-05
1.26465e-05
1.26465e-05
1.26465e-05
1.26465e-05
1.26465e-05
1.26465e-05
1.26465e-05
1.26465e-05
1.26465e-05
1.26465e-05
1.26465e-05
1.26465e-05
1.26465e-05
1.26465e-05
1.26465e-05
1.26465e-05
1.26465e-05
1.26465e-05
1.26465e-05
1.26465e-05
1.26465e-05
1.26465e-05
1.26221e-05
1.26465e-05
1.26465e-05
1.26465e-05
1.26221e-05
1.26465e-05
1.26465e-05
1.26465e-05
1.26221e-05
1.26465e-05
1.26465e-05
1.26465e-05
1.26221e-05
1.26465e-05
1.26465e-05
1.26465e-05
1.26221e-05
1.26221e-05
1.26465e-05
1.26465e-05
1.26465e-05
1.26465e-05
1.26465e-05
1.26465e-05
1.26465e-05
1.26465e-05
1.26465e-05
1.26465e-05
1.26221e-05
1.26465e-05
1.26221e-05
1.26221e-05
1.26221e-05
1.26465e-05
1.26465e-05
1.26465e-05
1.26221e-05
1.26465e-05
1.26465e-05
1.26465e-05
1.26465e-05
1.26465e-05
1.26465e-05
1.26465e-05
1.26465e-05
1.26465e-05
1.26465e-05
1.26465e-05
1.26465e-05
1.26465e-05
1.26465e-05
1.26465e-05
1.26465e-05
1.26465e-05
1.26465e-05
1.26465e-05
1.26465e-05
1.26465e-05
1.26465e-05
1.26465e-05
1.26465e-05
1.26465e-05
1.26465e-05
1.26465e-05
1.26465e-05
1.26465e-05
1.26465e-05
1.26465e-05
1.26465e-05
1.26465e-05
1.26465e-05
1.26465e-05
1.26465e-05
1.26465e-05
1.26465e-05
1.26465e-05
1.26465e-05
1.26465e-05
1.26465e-05
1.26465e-05
1.26465e-05
1.26465e-05
1.26465e-05
1.26465e-05
1.26465e-05
1.26221e-05
1.26465e-05
1.26465e-05
1.26221e-05
1.26465e-05
1.26465e-05
1.26465e-05
1.26465e-05
1.26465e-05
1.26465e-05
1.26465e-05
1.26465e-05
1.26465e-05
1.26465e-05
1.26465e-05
1.26465e-05
1.26465e-05
1.26465e-05
1.26465e-05
1.26465e-05
1.26465e-05
1.26465e-05
1.26465e-05
1.26221e-05
1.26465e-05
1.26465e-05
1.26465e-05
1.26221e-05
1.26465e-05
1.26465e-05
1.26465e-05
1.26221e-05
1.26465e-05
1.26465e-05
1.26465e-05
1.26465e-05
1.26465e-05
1.26465e-05
1.26465e-05
1.26221e-05
1.26465e-05
1.26465e-05
1.26465e-05
1.26221e-05
1.26465e-05
1.26465e-05
1.26465e-05
1.26221e-05
1.26465e-05
1.26465e-05
1.26465e-05
1.26221e-05
1.26465e-05
1.26465e-05
1.26221e-05
1.26221e-05
1.26221e-05
1.26465e-05
1.26465e-05
1.26465e-05
1.26221e-05
1.26465e-05
1.26465e-05
1.26465e-05
1.26465e-05
1.26465e-05
1.26465e-05
1.26465e-05
1.26465e-05
1.26465e-05
1.26221e-05
1.26221e-05
1.26221e-05
1.26221e-05
1.26221e-05
1.26221e-05
1.26221e-05
1.26221e-05
1.26221e-05
1.26221e-05
1.26221e-05
1.26221e-05
1.26221e-05
1.26221e-05
1.26221e-05
1.26465e-05
1.26221e-05
1.26221e-05
1.26465e-05
1.26465e-05
1.26221e-05
1.26221e-05
1.26221e-05
1.26465e-05
1.26221e-05
1.26221e-05
1.26221e-05
1.26221e-05
1.26221e-05
1.26221e-05
1.26221e-05
1.26221e-05
1.26221e-05
1.26221e-05
1.26465e-05
1.26221e-05
1.26221e-05
1.26221e-05
1.26221e-05
1.26221e-05
1.25977e-05
1.26221e-05
1.26221e-05
1.26221e-05
1.26221e-05
1.26221e-05
1.26221e-05
1.26465e-05
1.26221e-05
1.26221e-05
1.26221e-05
1.26465e-05
1.26221e-05
1.26465e-05
1.26465e-05
1.26465e-05
1.26221e-05
1.26465e-05
1.26465e-05
1.26465e-05
1.26221e-05
1.26221e-05
1.26465e-05
1.26465e-05
1.26221e-05
1.26465e-05
1.26465e-05
1.26465e-05
1.26221e-05
1.26465e-05
1.26465e-05
1.26465e-05
1.26221e-05
1.26465e-05
1.26465e-05
1.26465e-05
1.26221e-05
1.26465e-05
1.26221e-05
1.26465e-05
1.26221e-05
1.26221e-05
1.26465e-05
1.26465e-05
1.26221e-05
1.26465e-05
1.26465e-05
1.26465e-05
1.26221e-05
1.26465e-05
1.26465e-05
1.26221e-05
1.25977e-05
1.26221e-05
1.26221e-05
1.26465e-05
1.26221e-05
1.26465e-05
1.26465e-05
1.26465e-05
1.26221e-05
1.26465e-05
1.26465e-05
1.26465e-05
1.26221e-05
1.26465e-05
1.26465e-05
1.26465e-05
1.26221e-05
1.26465e-05
1.26465e-05
1.26465e-05
1.26221e-05
1.26465e-05
1.26465e-05
1.26465e-05
1.26221e-05
1.26465e-05
1.26465e-05
1.26465e-05
1.26465e-05
1.26465e-05
1.26465e-05
1.26465e-05
1.26465e-05
1.26465e-05
1.26465e-05
1.26465e-05
1.26465e-05
1.26221e-05
1.26465e-05
1.26465e-05
1.26465e-05
1.26221e-05
1.26465e-05
1.26465e-05
1.26465e-05
1.26221e-05
1.26465e-05
1.26465e-05
1.26465e-05
1.26221e-05
1.26465e-05
1.26465e-05
1.26221e-05
1.26221e-05
1.26221e-05
1.26465e-05
1.26465e-05
1.26221e-05
1.26465e-05
1.26465e-05
1.26465e-05
1.26465e-05
1.26465e-05
1.26465e-05
1.26465e-05
1.26465e-05
1.26465e-05
1.26465e-05
1.26465e-05
1.26465e-05
1.26465e-05
1.26465e-05
1.26465e-05
1.26221e-05
1.26221e-05
1.26465e-05
1.26465e-05
1.26465e-05
1.26465e-05
1.26465e-05
1.26465e-05
1.26221e-05
1.26221e-05
1.26465e-05
1.26465e-05
1.26465e-05
1.26221e-05
1.26465e-05
1.26221e-05
1.26221e-05
1.26221e-05
1.26221e-05
1.26221e-05
1.26221e-05
1.26221e-05
1.26221e-05
1.26221e-05
1.25977e-05
1.26221e-05
1.26221e-05
1.26221e-05
1.25977e-05
1.26221e-05
1.26221e-05
1.26221e-05
1.25977e-05
1.25977e-05
1.25977e-05
1.25977e-05
1.25977e-05
1.25977e-05
1.25977e-05
1.25977e-05
1.25977e-05
1.25977e-05
1.26221e-05
1.26221e-05
1.25977e-05
1.25977e-05
1.26221e-05
1.25977e-05
1.25977e-05
1.25977e-05
1.25977e-05
1.25977e-05
1.25977e-05
1.25977e-05
1.25977e-05
1.25977e-05
1.25977e-05
1.25977e-05
1.25977e-05
1.25977e-05
1.25977e-05
1.25977e-05
1.25977e-05
1.25977e-05
1.25977e-05
1.25977e-05
1.25977e-05
1.25977e-05
1.25977e-05
1.25977e-05
1.25977e-05
1.25977e-05
1.25732e-05
1.25977e-05
1.25977e-05
1.25977e-05
1.25732e-05
1.25977e-05
1.25977e-05
1.25977e-05
1.25732e-05
1.25977e-05
1.25977e-05
1.25977e-05
1.25732e-05
1.25977e-05
1.25977e-05
1.25732e-05
1.25732e-05
1.25732e-05
1.25732e-05
1.25732e-05
1.25732e-05
1.25732e-05
1.25977e-05
1.25977e-05
1.25732e-05
1.25977e-05
1.25977e-05
1.25732e-05
1.25732e-05
1.25977e-05
1.25977e-05
1.25732e-05
1.25732e-05
1.25732e-05
1.25732e-05
1.25732e-05
1.25732e-05
1.25732e-05
1.25732e-05
1.25732e-05
1.25732e-05
1.25732e-05
1.25732e-05
1.25732e-05
1.25732e-05
1.25732e-05
1.25732e-05
1.25732e-05
1.25732e-05
1.25732e-05
1.25732e-05
1.25732e-05
1.25732e-05
1.25732e-05
1.25732e-05
1.25732e-05
1.25732e-05
1.25732e-05
1.25732e-05
1.25732e-05
1.25732e-05
1.25732e-05
1.25732e-05
1.25732e-05
1.25732e-05
1.25732e-05
1.25732e-05
1.25732e-05
1.25732e-05
1.25732e-05
1.25977e-05
1.25732e-05
1.25732e-05
1.25732e-05
1.25977e-05
1.25977e-05
1.25732e-05
1.25977e-05
1.25977e-05
1.25977e-05
1.25977e-05
1.26221e-05
1.26221e-05
1.26221e-05
1.26221e-05
1.26221e-05
1.26221e-05
1.26465e-05
1.26221e-05
1.26465e-05
1.26465e-05
1.26465e-05
1.26465e-05
1.26465e-05
1.26465e-05
1.26709e-05
1.26465e-05
1.26709e-05
1.26709e-05
1.26709e-05
1.26709e-05
1.26709e-05
1.26953e-05
1.26953e-05
1.26953e-05
1.26953e-05
1.27197e-05
1.27197e-05
1.27197e-05
1.27197e-05
1.27441e-05
1.27197e-05
1.27197e-05
1.27441e-05
1.27441e-05
1.27441e-05
1.27441e-05
1.27686e-05
1.27686e-05
1.27686e-05
1.27686e-05
1.2793e-05
1.2793e-05
1.2793e-05
1.2793e-05
1.28174e-05
1.28174e-05
1.28174e-05
1.28174e-05
1.28174e-05
1.28174e-05
1.28174e-05
1.28174e-05
1.28418e-05
1.28418e-05
1.28418e-05
1.28662e-05
1.28662e-05
1.28662e-05
1.28662e-05
1.28662e-05
1.28906e-05
1.28906e-05
1.28906e-05
1.28906e-05
1.28906e-05
1.28906e-05
1.2915e-05
1.28906e-05
1.2915e-05
1.2915e-05
1.2915e-05
1.2915e-05
1.2915e-05
1.29395e-05
1.29395e-05
1.2915e-05
1.29395e-05
1.29395e-05
1.29395e-05
1.29395e-05
1.29639e-05
1.29639e-05
1.29639e-05
1.29639e-05
1.29639e-05
1.29639e-05
1.29639e-05
1.29639e-05
1.29639e-05
1.29883e-05
1.29883e-05
1.29639e-05
1.29883e-05
1.29883e-05
1.29883e-05
1.29639e-05
1.29883e-05
1.29883e-05
1.29883e-05
1.29883e-05
1.29883e-05
1.29883e-05
1.29883e-05
1.30127e-05
1.30127e-05
1.30127e-05
1.30127e-05
1.29883e-05
1.29883e-05
1.30127e-05
1.29883e-05
1.30127e-05
1.30127e-05
1.30127e-05
1.30127e-05
1.30371e-05
1.30371e-05
1.30371e-05
1.30371e-05
1.30371e-05
1.30371e-05
1.30371e-05
1.30371e-05
1.30371e-05
1.30371e-05
1.30371e-05
1.30371e-05
1.30371e-05
1.30371e-05
1.30371e-05
1.30371e-05
1.30371e-05
1.30615e-05
1.30615e-05
1.30371e-05
1.30615e-05
1.30615e-05
1.30615e-05
1.30615e-05
1.30615e-05
1.30615e-05
1.30615e-05
1.30371e-05
1.30615e-05
1.30615e-05
1.30615e-05
1.30615e-05
1.30615e-05
1.30615e-05
1.30615e-05
1.30371e-05
1.30615e-05
1.30615e-05
1.30615e-05
1.30371e-05
1.30371e-05
1.30615e-05
1.30615e-05
1.30615e-05
1.30615e-05
1.30615e-05
1.30615e-05
1.30615e-05
1.30615e-05
1.30371e-05
1.30371e-05
1.30371e-05
1.30371e-05
1.30371e-05
1.30371e-05
1.30371e-05
1.30371e-05
1.30371e-05
1.30371e-05
1.30371e-05
1.30371e-05
1.30371e-05
1.30615e-05
1.30371e-05
1.30371e-05
1.30371e-05
1.30371e-05
1.30371e-05
1.30371e-05
1.30371e-05
1.30371e-05
1.30371e-05
1.30371e-05
1.30371e-05
1.30371e-05
1.30371e-05
1.30127e-05
1.30371e-05
1.30371e-05
1.30371e-05
1.30127e-05
1.30371e-05
1.30371e-05
1.30371e-05
1.30127e-05
1.30127e-05
1.30371e-05
1.30127e-05
1.30127e-05
1.30127e-05
1.30127e-05
1.30127e-05
1.30127e-05
1.30127e-05
1.30127e-05
1.30127e-05
1.29883e-05
1.30127e-05
1.30127e-05
1.30127e-05
1.29883e-05
1.30127e-05
1.30127e-05
1.30127e-05
1.29883e-05
1.29883e-05
1.29883e-05
1.29883e-05
1.29639e-05
1.29883e-05
1.29883e-05
1.29883e-05
1.29639e-05
1.29883e-05
1.29883e-05
1.29883e-05
1.29639e-05
1.29639e-05
1.29639e-05
1.29639e-05
1.29639e-05
1.29639e-05
1.29639e-05
1.29639e-05
1.29639e-05
1.29639e-05
1.29639e-05
1.29639e-05
1.29395e-05
1.29639e-05
1.29639e-05
1.29395e-05
1.29395e-05
1.29395e-05
1.29395e-05
1.29395e-05
1.29395e-05
1.29395e-05
1.29395e-05
1.29395e-05
1.2915e-05
1.29395e-05
1.29395e-05
1.29395e-05
1.2915e-05
1.29395e-05
1.2915e-05
1.2915e-05
1.2915e-05
1.2915e-05
1.2915e-05
1.2915e-05
1.2915e-05
1.2915e-05
1.2915e-05
1.2915e-05
1.28906e-05
1.2915e-05
1.2915e-05
1.2915e-05
1.28906e-05
1.28906e-05
1.28906e-05
1.28906e-05
1.28662e-05
1.28662e-05
1.28662e-05
1.28662e-05
1.28662e-05
1.28662e-05
1.28662e-05
1.28662e-05
1.28662e-05
1.28662e-05
1.28662e-05
1.28662e-05
1.28662e-05
1.28662e-05
1.28662e-05
1.28662e-05
1.28662e-05
1.28662e-05
1.28662e-05
1.28662e-05
1.28418e-05
1.28662e-05
1.28662e-05
1.28662e-05
1.28418e-05
1.28418e-05
1.28418e-05
1.28418e-05
1.28418e-05
1.28418e-05
1.28418e-05
1.28418e-05
1.28418e-05
1.28418e-05
1.28418e-05
1.28418e-05
1.28418e-05
1.28418e-05
1.28418e-05
1.28418e-05
1.28174e-05
1.28418e-05
1.28418e-05
1.28418e-05
1.28174e-05
1.28418e-05
1.28174e-05
1.28174e-05
1.28174e-05
1.28174e-05
1.28174e-05
1.28174e-05
1.2793e-05
1.2793e-05
1.28174e-05
1.2793e-05
1.2793e-05
1.2793e-05
1.28174e-05
1.2793e-05
1.2793e-05
1.2793e-05
1.2793e-05
1.2793e-05
1.27686e-05
1.2793e-05
1.2793e-05
1.2793e-05
1.27686e-05
1.2793e-05
1.2793e-05
1.27686e-05
1.27686e-05
1.27686e-05
1.2793e-05
1.27686e-05
1.27686e-05
1.27686e-05
1.27686e-05
1.27686e-05
1.27686e-05
1.27686e-05
1.27686e-05
1.27686e-05
1.27686e-05
1.27686e-05
1.27686e-05
1.27686e-05
1.27441e-05
1.27686e-05
1.27686e-05
1.27686e-05
1.27441e-05
1.27686e-05
1.27686e-05
1.27686e-05
1.27441e-05
1.27441e-05
1.27441e-05
1.27441e-05
1.27441e-05
1.27441e-05
1.27441e-05
1.27441e-05
1.27197e-05
1.27441e-05
1.27441e-05
1.27441e-05
1.27197e-05
1.27441e-05
1.27441e-05
1.27197e-05
1.27197e-05
1.27197e-05
1.27197e-05
1.27197e-05
1.27197e-05
1.27197e-05
1.27197e-05
1.27197e-05
1.27197e-05
1.27197e-05
1.27197e-05
1.27197e-05
1.26953e-05
1.26953e-05
1.27197e-05
1.26953e-05
1.26953e-05
1.26953e-05
1.27197e-05
1.26953e-05
1.26953e-05
1.26953e-05
1.27197e-05
1.26953e-05
1.26953e-05
1.26953e-05
1.26953e-05
1.26953e-05
1.26709e-05
1.26953e-05
1.26953e-05
1.26953e-05
1.26709e-05
1.26953e-05
1.26953e-05
1.26709e-05
1.26709e-05
1.26709e-05
1.26709e-05
1.26709e-05
1.26709e-05
1.26709e-05
1.26709e-05
1.26709e-05
1.26709e-05
1.26709e-05
1.26709e-05
1.26709e-05
1.26709e-05
1.26709e-05
1.26709e-05
1.26709e-05
1.26709e-05
1.26709e-05
1.26709e-05
1.26709e-05
1.26465e-05
1.26709e-05
1.26709e-05
1.26465e-05
1.26465e-05
1.26709e-05
1.26709e-05
1.26465e-05
1.26465e-05
1.26465e-05
1.26465e-05
1.26465e-05
1.26465e-05
1.26465e-05
1.26465e-05
1.26465e-05
1.26221e-05
1.26465e-05
1.26465e-05
1.26465e-05
1.26465e-05
1.26465e-05
1.26465e-05
1.26465e-05
1.26465e-05
1.26465e-05
1.26465e-05
1.26465e-05
1.26221e-05
1.26465e-05
1.26465e-05
1.26465e-05
1.26221e-05
1.26465e-05
1.26221e-05
1.26221e-05
1.26221e-05
1.26221e-05
1.26465e-05
1.26221e-05
1.26221e-05
1.26221e-05
1.26465e-05
1.26221e-05
1.26221e-05
1.26221e-05
1.26221e-05
1.26221e-05
1.26221e-05
1.26221e-05
1.26221e-05
1.26221e-05
1.26221e-05
1.26221e-05
1.26221e-05
1.26221e-05
1.26221e-05
1.26221e-05
1.26221e-05
1.26221e-05
1.26221e-05
1.25977e-05
1.26221e-05
1.25977e-05
1.25977e-05
1.25977e-05
1.26221e-05
1.25977e-05
1.25977e-05
1.25977e-05
1.25977e-05
1.25977e-05
1.25977e-05
1.25977e-05
1.25977e-05
1.25732e-05
1.25977e-05
1.25977e-05
1.25977e-05
1.25977e-05
1.25977e-05
1.25977e-05
1.25977e-05
1.25977e-05
1.25977e-05
1.25977e-05
1.25977e-05
1.25977e-05
1.25732e-05
1.25977e-05
1.25977e-05
1.25977e-05
1.25732e-05
1.25977e-05
1.25732e-05
1.25732e-05
1.25732e-05
1.25732e-05
1.25732e-05
1.25732e-05
1.25732e-05
1.25732e-05
1.25732e-05
1.25732e-05
1.25732e-05
1.25732e-05
1.25732e-05
1.25732e-05
1.25732e-05
1.25732e-05
1.25732e-05
1.25732e-05
1.25732e-05
1.25732e-05
1.25732e-05
1.25732e-05
1.25732e-05
1.25732e-05
1.25732e-05
1.25732e-05
1.25732e-05
1.25732e-05
1.25732e-05
1.25732e-05
1.25488e-05
1.25732e-05
1.25732e-05
1.25732e-05
1.25488e-05
1.25488e-05
1.25732e-05
1.25732e-05
1.25488e-05
1.25732e-05
1.25488e-05
1.25488e-05
1.25488e-05
1.25488e-05
1.25488e-05
1.25488e-05
1.25488e-05
1.25488e-05
1.25732e-05
1.25488e-05
1.25488e-05
1.25488e-05
1.25488e-05
1.25488e-05
1.25488e-05
1.25488e-05
1.25488e-05
1.25488e-05
1.25488e-05
1.25488e-05
1.25488e-05
1.25488e-05
1.25244e-05
1.25488e-05
1.25488e-05
1.25488e-05
1.25244e-05
1.25244e-05
1.25488e-05
1.25488e-05
1.25244e-05
1.25488e-05
1.25488e-05
1.25488e-05
1.25244e-05
1.25488e-05
1.25244e-05
1.25244e-05
1.25244e-05
1.25244e-05
1.25244e-05
1.25244e-05
1.25244e-05
1.25244e-05
1.25244e-05
1.25244e-05
1.25244e-05
1.25244e-05
1.25244e-05
1.25244e-05
1.25244e-05
1.25244e-05
1.25244e-05
1.25244e-05
1.25244e-05
1.25244e-05
1.25244e-05
1.25244e-05
1.25244e-05
1.25244e-05
1.25244e-05
1.25244e-05
1.25244e-05
1.25e-05
1.25244e-05
1.25e-05
1.25244e-05
1.25244e-05
1.25244e-05
1.25244e-05
1.25244e-05
1.25244e-05
1.25244e-05
1.25244e-05
1.25244e-05
1.25244e-05
1.25244e-05
1.25244e-05
1.25e-05
1.25244e-05
1.25244e-05
1.25e-05
1.25e-05
1.25e-05
1.25e-05
1.25e-05
1.25e-05
1.25e-05
1.25e-05
1.25e-05
1.25e-05
1.25e-05
1.25e-05
1.25e-05
1.25e-05
1.25e-05
1.25e-05
1.25e-05
1.25e-05
1.25e-05
1.25e-05
1.25e-05
1.25e-05
1.25e-05
1.25e-05
1.25e-05
1.25e-05
1.25e-05
1.25e-05
1.25e-05
1.25e-05
1.25e-05
1.25e-05
1.25e-05
1.24756e-05
1.24756e-05
1.25e-05
1.24756e-05
1.24756e-05
1.25e-05
1.25e-05
1.25e-05
1.24756e-05
1.24756e-05
1.24756e-05
1.24756e-05
1.24756e-05
1.24756e-05
1.24756e-05
1.24756e-05
1.24756e-05
1.24756e-05
1.24756e-05
1.24756e-05
1.24756e-05
1.24756e-05
1.24756e-05
1.24756e-05
1.24756e-05
1.24756e-05
1.24756e-05
1.24756e-05
1.24756e-05
1.24756e-05
1.24756e-05
1.24756e-05
1.24512e-05
1.24756e-05
1.24756e-05
1.24756e-05
1.24512e-05
1.24756e-05
1.24756e-05
1.24756e-05
1.24512e-05
1.24512e-05
1.24756e-05
1.24756e-05
1.24512e-05
1.24512e-05
1.24512e-05
1.24512e-05
1.24512e-05
1.24512e-05
1.24512e-05
1.24512e-05
1.24512e-05
1.24512e-05
1.24512e-05
1.24512e-05
1.24512e-05
1.24512e-05
1.24512e-05
1.24512e-05
1.24512e-05
1.24512e-05
1.24512e-05
1.24512e-05
1.24512e-05
1.24512e-05
1.24512e-05
1.24512e-05
1.24512e-05
1.24268e-05
1.24268e-05
1.24268e-05
1.24268e-05
1.24512e-05
1.24512e-05
1.24512e-05
1.24268e-05
1.24268e-05
1.24512e-05
1.24512e-05
1.24268e-05
1.24268e-05
1.24512e-05
1.24268e-05
1.24268e-05
1.24268e-05
1.24268e-05
1.24268e-05
1.24268e-05
1.24268e-05
1.24268e-05
1.24268e-05
1.24268e-05
1.24268e-05
1.24268e-05
1.24268e-05
1.24268e-05
1.24268e-05
1.24268e-05
1.24023e-05
1.24268e-05
1.24268e-05
1.24268e-05
1.24268e-05
1.24268e-05
1.24023e-05
1.24023e-05
1.24023e-05
1.24023e-05
1.24268e-05
1.24268e-05
1.24268e-05
1.24023e-05
1.24023e-05
1.24023e-05
1.24023e-05
1.24023e-05
1.24023e-05
1.24023e-05
1.24023e-05
1.24023e-05
1.24023e-05
1.24023e-05
1.24268e-05
1.24268e-05
1.24268e-05
1.24268e-05
1.24023e-05
1.24023e-05
1.24023e-05
1.24023e-05
1.24023e-05
1.24268e-05
1.24268e-05
1.24268e-05
1.24268e-05
1.24268e-05
1.24023e-05
1.24268e-05
1.24268e-05
1.24268e-05
1.24268e-05
1.24268e-05
1.24268e-05
1.24268e-05
1.24268e-05
1.24268e-05
1.24268e-05
1.24023e-05
1.24268e-05
1.24268e-05
1.24268e-05
1.24268e-05
1.24268e-05
1.24268e-05
1.24268e-05
1.24268e-05
1.24268e-05
1.24268e-05
1.24268e-05
1.24268e-05
1.24268e-05
1.24268e-05
1.24268e-05
1.24268e-05
1.24268e-05
1.24268e-05
1.24268e-05
1.24268e-05
1.24268e-05
1.24268e-05
1.24268e-05
1.24268e-05
1.24268e-05
1.24268e-05
1.24268e-05
1.24268e-05
1.24268e-05
1.24268e-05
1.24268e-05
1.24268e-05
1.24023e-05
1.24268e-05
1.24268e-05
1.24268e-05
1.24268e-05
1.24023e-05
1.24023e-05
1.24023e-05
1.24023e-05
1.24023e-05
1.24023e-05
1.24023e-05
1.24023e-05
1.24023e-05
1.24023e-05
1.24023e-05
1.24023e-05
1.24023e-05
1.24023e-05
1.24023e-05
1.24023e-05
1.24023e-05
1.24023e-05
1.24023e-05
1.24023e-05
1.24023e-05
1.24023e-05
1.24023e-05
1.24023e-05
1.24023e-05
1.24023e-05
1.24023e-05
1.24023e-05
1.24023e-05
1.24023e-05
1.24023e-05
1.23779e-05
1.24023e-05
1.24023e-05
1.24023e-05
1.23779e-05
1.24023e-05
1.23779e-05
1.23779e-05
1.23779e-05
1.24023e-05
1.23779e-05
1.23779e-05
1.23779e-05
1.23779e-05
1.23779e-05
1.23779e-05
1.23779e-05
1.23779e-05
1.23779e-05
1.23779e-05
1.23779e-05
1.23779e-05
1.23779e-05
1.23779e-05
1.23535e-05
1.23535e-05
1.23535e-05
1.23535e-05
1.23535e-05
1.23535e-05
1.23535e-05
1.23535e-05
1.23535e-05
1.23535e-05
1.23535e-05
1.23535e-05
1.23535e-05
1.23535e-05
1.23535e-05
1.23535e-05
1.23535e-05
1.23535e-05
1.23535e-05
1.23291e-05
1.23535e-05
1.23535e-05
1.23535e-05
1.23291e-05
1.23535e-05
1.23535e-05
1.23535e-05
1.23291e-05
1.23291e-05
1.23535e-05
1.23535e-05
1.23291e-05
1.23535e-05
1.23535e-05
1.23291e-05
1.23291e-05
1.23535e-05
1.23291e-05
1.23291e-05
1.23291e-05
1.23291e-05
1.23291e-05
1.23291e-05
1.23291e-05
1.23291e-05
1.23291e-05
1.23291e-05
1.23291e-05
1.23291e-05
1.23291e-05
1.23291e-05
1.23291e-05
1.23291e-05
1.23291e-05
1.23291e-05
1.23291e-05
1.23047e-05
1.23291e-05
1.23047e-05
1.23047e-05
1.23291e-05
1.23291e-05
1.23291e-05
1.23291e-05
1.23291e-05
1.23291e-05
1.23291e-05
1.23047e-05
1.23291e-05
1.23291e-05
1.23291e-05
1.23291e-05
1.23291e-05
1.23291e-05
1.23291e-05
1.23047e-05
1.23291e-05
1.23291e-05
1.23047e-05
1.23047e-05
1.23291e-05
1.23291e-05
1.23291e-05
1.23047e-05
1.23291e-05
1.23291e-05
1.23047e-05
1.23047e-05
1.23291e-05
1.23291e-05
1.23047e-05
1.23047e-05
1.23047e-05
1.23047e-05
1.23047e-05
1.23047e-05
1.23047e-05
1.23047e-05
1.23047e-05
1.23047e-05
1.23047e-05
1.23047e-05
1.23047e-05
1.23047e-05
1.23047e-05
1.23047e-05
1.23047e-05
1.23047e-05
1.23047e-05
1.23047e-05
1.23047e-05
1.23047e-05
1.23047e-05
1.23047e-05
1.23047e-05
1.23047e-05
1.22803e-05
1.23047e-05
1.23047e-05
1.23047e-05
1.23047e-05
1.23047e-05
1.23047e-05
1.23047e-05
1.23047e-05
1.23047e-05
1.23047e-05
1.22803e-05
1.23047e-05
1.23047e-05
1.23047e-05
1.22803e-05
1.22803e-05
1.23047e-05
1.22803e-05
1.22803e-05
1.22803e-05
1.22803e-05
1.22803e-05
1.22803e-05
1.22803e-05
1.22803e-05
1.23047e-05
1.22803e-05
1.22803e-05
1.22803e-05
1.22803e-05
1.22803e-05
1.22803e-05
1.22803e-05
1.22803e-05
1.22803e-05
1.22803e-05
1.22803e-05
1.22803e-05
1.22803e-05
1.22803e-05
1.22803e-05
1.22803e-05
1.22803e-05
1.22803e-05
1.22803e-05
1.22803e-05
1.22559e-05
1.22803e-05
1.22803e-05
1.22803e-05
1.22803e-05
1.22559e-05
1.22559e-05
1.22559e-05
1.22559e-05
1.22559e-05
1.22559e-05
1.22559e-05
1.22559e-05
1.22559e-05
1.22559e-05
1.22559e-05
1.22559e-05
1.22559e-05
1.22559e-05
1.22559e-05
1.22559e-05
1.22559e-05
1.22559e-05
1.22559e-05
1.22559e-05
1.22559e-05
1.22559e-05
1.22559e-05
1.22559e-05
1.22559e-05
1.22559e-05
1.22559e-05
1.22559e-05
1.22559e-05
1.22559e-05
1.22559e-05
1.22314e-05
1.22559e-05
1.22559e-05
1.22559e-05
1.22314e-05
1.22559e-05
1.22559e-05
1.22559e-05
1.22314e-05
1.22314e-05
1.22559e-05
1.22559e-05
1.22559e-05
1.22559e-05
1.22559e-05
1.22559e-05
1.22314e-05
1.22559e-05
1.22559e-05
1.22314e-05
1.22314e-05
1.22559e-05
1.22559e-05
1.22559e-05
1.22314e-05
1.22314e-05
1.22559e-05
1.22314e-05
1.22314e-05
1.2207e-05
1.22314e-05
1.22314e-05
1.22314e-05
1.22314e-05
1.22314e-05
1.22314e-05
1.22314e-05
1.22314e-05
1.22314e-05
1.22314e-05
1.22314e-05
1.22314e-05
1.22314e-05
1.22314e-05
1.22314e-05
1.2207e-05
1.22314e-05
1.22314e-05
1.2207e-05
1.22314e-05
1.22314e-05
1.22314e-05
1.2207e-05
1.2207e-05
1.22314e-05
1.2207e-05
1.2207e-05
1.2207e-05
1.2207e-05
1.2207e-05
1.2207e-05
1.22314e-05
1.2207e-05
1.2207e-05
1.2207e-05
1.2207e-05
1.2207e-05
1.2207e-05
1.2207e-05
1.2207e-05
1.2207e-05
1.2207e-05
1.2207e-05
1.2207e-05
1.2207e-05
1.2207e-05
1.2207e-05
1.2207e-05
1.2207e-05
1.2207e-05
1.2207e-05
1.2207e-05
1.2207e-05
1.2207e-05
1.21826e-05
1.21826e-05
1.21826e-05
1.21826e-05
1.21826e-05
1.21826e-05
1.21826e-05
1.2207e-05
1.21826e-05
1.2207e-05
1.2207e-05
1.2207e-05
1.21826e-05
1.21826e-05
1.21826e-05
1.21826e-05
1.21826e-05
1.21826e-05
1.21826e-05
1.21826e-05
1.21826e-05
1.21826e-05
1.21826e-05
1.21826e-05
1.21826e-05
1.21826e-05
1.21826e-05
1.21826e-05
1.21826e-05
1.21826e-05
1.21826e-05
1.21826e-05
1.21826e-05
1.21826e-05
1.21826e-05
1.21826e-05
1.21826e-05
1.21826e-05
1.21826e-05
1.21826e-05
1.21826e-05
1.21826e-05
1.21826e-05
1.21826e-05
1.21582e-05
1.21826e-05
1.21826e-05
1.21826e-05
1.21826e-05
1.21826e-05
1.21826e-05
1.21826e-05
1.21826e-05
1.21826e-05
1.21826e-05
1.21826e-05
1.21582e-05
1.21582e-05
1.21826e-05
1.21582e-05
1.21826e-05
1.21826e-05
1.21826e-05
1.21826e-05
1.21826e-05
1.21826e-05
1.21826e-05
1.21826e-05
1.21826e-05
1.21826e-05
1.21826e-05
1.21582e-05
1.21582e-05
1.21582e-05
1.21826e-05
1.21582e-05
1.21582e-05
1.21582e-05
1.21582e-05
1.21582e-05
1.21582e-05
1.21338e-05
1.21582e-05
1.21582e-05
1.21582e-05
1.21582e-05
1.21582e-05
1.21582e-05
1.21582e-05
1.21582e-05
1.21582e-05
1.21338e-05
1.21338e-05
1.21338e-05
1.21582e-05
1.21338e-05
1.21338e-05
1.21338e-05
1.21338e-05
1.21338e-05
1.21338e-05
1.21338e-05
1.21338e-05
1.21338e-05
1.21338e-05
1.21338e-05
1.21338e-05
1.21338e-05
1.21338e-05
1.21338e-05
1.21338e-05
1.21338e-05
1.21338e-05
1.21338e-05
1.21094e-05
1.21094e-05
1.21338e-05
1.21338e-05
1.21338e-05
1.21338e-05
1.21338e-05
1.21338e-05
1.21338e-05
1.21338e-05
1.21338e-05
1.21094e-05
1.21338e-05
1.21094e-05
1.21094e-05
1.21338e-05
1.21338e-05
1.21094e-05
1.21094e-05
1.21094e-05
1.21094e-05
1.21094e-05
1.21094e-05
1.21094e-05
1.21094e-05
1.21094e-05
1.21094e-05
1.21094e-05
1.21094e-05
1.21094e-05
1.21094e-05
1.21094e-05
1.21094e-05
1.21094e-05
1.21094e-05
1.21094e-05
1.21094e-05
1.21094e-05
1.21094e-05
1.21094e-05
1.21094e-05
1.21094e-05
1.21094e-05
1.21094e-05
1.21094e-05
1.21094e-05
1.21094e-05
1.21094e-05
1.21338e-05
1.21094e-05
1.21094e-05
1.21338e-05
1.21338e-05
1.21338e-05
1.21338e-05
1.21094e-05
1.21338e-05
1.21338e-05
1.21338e-05
1.21338e-05
1.21582e-05
1.21582e-05
1.21582e-05
1.21582e-05
1.21826e-05
1.21826e-05
1.21826e-05
1.21826e-05
1.2207e-05
1.2207e-05
1.2207e-05
1.2207e-05
1.2207e-05
1.2207e-05
1.22314e-05
1.22314e-05
1.22559e-05
1.22559e-05
1.22559e-05
1.22559e-05
1.22803e-05
1.23047e-05
1.23047e-05
1.23047e-05
1.23291e-05
1.23291e-05
1.23291e-05
1.23535e-05
1.23535e-05
1.23779e-05
1.23779e-05
1.24023e-05
1.24023e-05
1.24023e-05
1.24268e-05
1.24512e-05
1.24512e-05
1.24512e-05
1.24756e-05
1.24756e-05
1.25e-05
1.25e-05
1.25244e-05
1.25244e-05
1.25488e-05
1.25732e-05
1.25732e-05
1.25977e-05
1.25977e-05
1.26221e-05
1.26221e-05
1.26465e-05
1.26465e-05
1.26709e-05
1.26709e-05
1.26953e-05
1.27197e-05
1.27197e-05
1.27197e-05
1.27441e-05
1.27686e-05
1.27686e-05
1.2793e-05
1.2793e-05
1.28174e-05
1.28174e-05
1.28174e-05
1.28418e-05
1.28662e-05
1.28662e-05
1.28662e-05
1.28662e-05
1.28906e-05
1.28906e-05
1.28906e-05
1.2915e-05
1.29395e-05
1.29395e-05
1.29395e-05
1.29639e-05
1.29639e-05
1.29639e-05
1.29883e-05
1.29883e-05
1.30127e-05
1.30127e-05
1.30127e-05
1.30371e-05
1.30615e-05
1.30615e-05
1.30615e-05
1.30859e-05
1.30859e-05
1.30859e-05
1.30859e-05
1.31104e-05
1.31104e-05
1.31348e-05
1.31348e-05
1.31592e-05
1.31592e-05
1.31592e-05
1.31836e-05
1.31836e-05
1.31836e-05
1.31836e-05
1.3208e-05
1.3208e-05
1.32324e-05
1.32324e-05
1.32568e-05
1.32568e-05
1.32568e-05
1.32812e-05
1.32812e-05
1.32812e-05
1.33057e-05
1.33057e-05
1.33057e-05
1.33301e-05
1.33301e-05
1.33301e-05
1.33545e-05
1.33545e-05
1.33545e-05
1.33789e-05
1.33789e-05
1.33789e-05
1.34033e-05
1.34033e-05
1.34277e-05
1.34277e-05
1.34521e-05
1.34521e-05
1.34521e-05
1.34521e-05
1.34766e-05
1.34766e-05
1.34766e-05
1.3501e-05
1.3501e-05
1.35254e-05
1.35254e-05
1.35254e-05
1.35498e-05
1.35498e-05
1.35498e-05
1.35742e-05
1.35742e-05
1.35742e-05
1.35742e-05
1.35986e-05
1.35986e-05
1.35986e-05
1.35986e-05
1.35986e-05
1.3623e-05
1.3623e-05
1.3623e-05
1.3623e-05
1.3623e-05
1.3623e-05
1.36475e-05
1.36475e-05
1.36475e-05
1.36719e-05
1.36719e-05
1.36719e-05
1.36719e-05
1.36719e-05
1.36719e-05
1.36719e-05
1.36963e-05
1.36719e-05
1.36963e-05
1.36963e-05
1.36963e-05
1.36963e-05
1.36963e-05
1.36963e-05
1.36963e-05
1.36963e-05
1.36963e-05
1.37207e-05
1.37207e-05
1.37207e-05
1.37207e-05
1.37207e-05
1.37451e-05
1.37451e-05
1.37207e-05
1.37451e-05
1.37451e-05
1.37451e-05
1.37451e-05
1.37451e-05
1.37451e-05
1.37451e-05
1.37451e-05
1.37451e-05
1.37451e-05
1.37451e-05
1.37451e-05
1.37451e-05
1.37451e-05
1.37451e-05
1.37451e-05
1.37451e-05
1.37451e-05
1.37451e-05
1.37451e-05
1.37451e-05
1.37451e-05
1.37451e-05
1.37451e-05
1.37451e-05
1.37451e-05
1.37451e-05
1.37451e-05
1.37451e-05
1.37451e-05
1.37451e-05
1.37451e-05
1.37451e-05
1.37451e-05
1.37451e-05
1.37451e-05
1.37451e-05
1.37451e-05
1.37451e-05
1.37451e-05
1.37451e-05
1.37451e-05
1.37207e-05
1.37207e-05
1.37451e-05
1.37451e-05
1.37207e-05
1.37207e-05
1.37207e-05
1.37451e-05
1.37207e-05
1.37207e-05
1.37207e-05
1.37207e-05
1.37207e-05
1.37207e-05
1.37207e-05
1.37207e-05
1.37207e-05
1.37207e-05
1.37207e-05
1.37207e-05
1.37207e-05
1.37207e-05
1.37207e-05
1.37207e-05
1.37207e-05
1.36963e-05
1.36963e-05
1.36963e-05
1.36963e-05
1.36963e-05
1.36963e-05
1.36963e-05
1.36963e-05
1.36963e-05
1.36963e-05
1.36963e-05
1.36963e-05
1.36719e-05
1.36719e-05
1.36719e-05
1.36719e-05
1.36719e-05
1.36719e-05
1.36963e-05
1.36719e-05
1.36719e-05
1.36719e-05
1.36963e-05
1.36719e-05
1.36719e-05
1.36719e-05
1.36719e-05
1.36719e-05
1.36719e-05
1.36719e-05
1.36719e-05
1.36719e-05
1.36719e-05
1.36475e-05
1.36719e-05
1.36719e-05
1.36719e-05
1.36475e-05
1.36475e-05
1.36475e-05
1.36475e-05
1.36475e-05
1.36475e-05
1.36475e-05
1.36475e-05
1.3623e-05
1.36475e-05
1.36475e-05
1.3623e-05
1.3623e-05
1.3623e-05
1.3623e-05
1.3623e-05
1.3623e-05
1.3623e-05
1.35986e-05
1.35986e-05
1.35986e-05
1.35986e-05
1.35986e-05
1.35986e-05
1.35986e-05
1.35986e-05
1.35986e-05
1.35986e-05
1.35742e-05
1.35742e-05
1.35742e-05
1.35742e-05
1.35742e-05
1.35742e-05
1.35742e-05
1.35742e-05
1.35742e-05
1.35742e-05
1.35742e-05
1.35742e-05
1.35742e-05
1.35742e-05
1.35742e-05
1.35742e-05
1.35742e-05
1.35986e-05
1.35986e-05
1.35986e-05
1.35986e-05
1.35986e-05
1.35986e-05
1.35986e-05
1.35986e-05
1.3623e-05
1.3623e-05
1.3623e-05
1.3623e-05
1.36475e-05
1.36475e-05
1.36475e-05
1.36475e-05
1.36719e-05
1.36719e-05
1.36719e-05
1.36963e-05
1.36963e-05
1.36963e-05
1.37207e-05
1.37207e-05
1.37451e-05
1.37451e-05
1.37451e-05
1.37695e-05
1.37695e-05
1.37939e-05
1.38184e-05
1.38184e-05
1.38428e-05
1.38428e-05
1.38672e-05
1.38672e-05
1.38916e-05
1.3916e-05
1.3916e-05
1.39404e-05
1.39648e-05
1.39648e-05
1.39648e-05
1.39893e-05
1.40137e-05
1.40381e-05
1.40381e-05
1.40625e-05
1.40869e-05
1.41113e-05
1.41113e-05
1.41357e-05
1.41602e-05
1.41846e-05
1.41846e-05
1.4209e-05
1.42334e-05
1.42334e-05
1.42334e-05
1.42578e-05
1.42822e-05
1.42822e-05
1.43066e-05
1.43311e-05
1.43311e-05
1.43555e-05
1.43555e-05
1.43799e-05
1.44043e-05
1.44287e-05
1.44287e-05
1.44531e-05
1.44775e-05
1.44775e-05
1.4502e-05
1.45264e-05
1.45264e-05
1.45508e-05
1.45508e-05
1.45752e-05
1.45752e-05
1.45996e-05
1.45996e-05
1.4624e-05
1.4624e-05
1.4624e-05
1.46484e-05
1.46484e-05
1.46484e-05
1.46729e-05
1.46729e-05
1.46729e-05
1.46973e-05
1.47217e-05
1.47217e-05
1.47461e-05
1.47461e-05
1.47461e-05
1.47461e-05
1.47705e-05
1.47705e-05
1.47949e-05
1.47949e-05
1.47949e-05
1.48193e-05
1.48193e-05
1.48193e-05
1.48437e-05
1.48437e-05
1.48437e-05
1.48437e-05
1.48437e-05
1.48437e-05
1.48437e-05
1.48437e-05
1.48437e-05
1.48437e-05
1.48437e-05
1.48437e-05
1.48437e-05
1.48437e-05
1.48437e-05
1.48437e-05
1.48437e-05
1.48437e-05
1.48437e-05
1.48437e-05
1.48437e-05
1.48437e-05
1.48437e-05
1.48437e-05
1.48437e-05
1.48437e-05
1.48437e-05
1.48437e-05
1.48437e-05
1.48437e-05
1.48437e-05
1.48437e-05
1.48437e-05
1.48437e-05
1.48437e-05
1.48437e-05
1.48437e-05
1.48437e-05
1.48437e-05
1.48437e-05
1.48437e-05
1.48437e-05
1.48437e-05
1.48437e-05
1.48437e-05
1.48437e-05
1.48437e-05
1.48437e-05
1.48437e-05
1.48437e-05
1.48437e-05
1.48437e-05
1.48437e-05
1.48682e-05
1.48682e-05
1.48682e-05
1.48682e-05
1.48682e-05
1.48682e-05
1.48682e-05
1.48682e-05
1.48682e-05
1.48682e-05
1.48682e-05
1.48682e-05
1.48682e-05
1.48682e-05
1.48682e-05
1.48682e-05
1.48926e-05
1.48926e-05
1.48926e-05
1.48926e-05
1.48926e-05
1.48926e-05
1.48926e-05
1.4917e-05
1.4917e-05
1.4917e-05
1.4917e-05
1.4917e-05
1.4917e-05
1.49414e-05
1.49414e-05
1.49414e-05
1.49658e-05
1.49658e-05
1.49658e-05
1.49902e-05
1.49902e-05
1.49902e-05
1.49902e-05
1.50146e-05
1.50146e-05
1.50146e-05
1.50146e-05
1.50146e-05
1.50146e-05
1.50391e-05
1.50391e-05
1.50635e-05
1.50635e-05
1.50635e-05
1.50635e-05
1.50879e-05
1.50879e-05
1.50879e-05
1.50879e-05
1.51123e-05
1.51367e-05
1.51367e-05
1.51367e-05
1.51367e-05
1.51611e-05
1.51611e-05
1.51611e-05
1.51611e-05
1.51611e-05
1.51611e-05
1.51611e-05
1.51611e-05
1.51611e-05
1.51611e-05
1.51611e-05
1.51611e-05
1.51611e-05
1.51611e-05
1.51611e-05
1.51611e-05
1.51611e-05
1.51611e-05
1.51611e-05
1.51611e-05
1.51611e-05
1.51611e-05
1.51611e-05
1.51611e-05
1.51611e-05
1.51367e-05
1.51611e-05
1.51611e-05
1.51611e-05
1.51367e-05
1.51367e-05
1.51367e-05
1.51367e-05
1.51367e-05
1.51367e-05
1.51367e-05
1.51367e-05
1.51367e-05
1.51367e-05
1.51367e-05
1.51367e-05
1.51123e-05
1.51123e-05
1.51123e-05
1.51123e-05
1.51123e-05
1.51123e-05
1.50879e-05
1.50879e-05
1.50879e-05
1.50879e-05
1.50879e-05
1.50879e-05
1.50879e-05
1.50879e-05
1.50635e-05
1.50879e-05
1.50635e-05
1.50635e-05
1.50635e-05
1.50635e-05
1.50635e-05
1.50635e-05
1.50635e-05
1.50635e-05
1.50635e-05
1.50635e-05
1.50635e-05
1.50635e-05
1.50635e-05
1.50635e-05
1.50635e-05
1.50635e-05
1.50635e-05
1.50635e-05
1.50391e-05
1.50635e-05
1.50635e-05
1.50391e-05
1.50391e-05
1.50391e-05
1.50391e-05
1.50391e-05
1.50391e-05
1.50635e-05
1.50635e-05
1.50635e-05
1.50635e-05
1.50635e-05
1.50635e-05
1.50635e-05
1.50635e-05
1.50635e-05
1.50635e-05
1.50879e-05
1.50635e-05
1.50879e-05
1.50879e-05
1.50879e-05
1.50879e-05
1.50879e-05
1.50879e-05
1.50879e-05
1.50879e-05
1.51123e-05
1.51123e-05
1.51123e-05
1.50879e-05
1.51123e-05
1.51123e-05
1.50879e-05
1.50879e-05
1.50879e-05
1.50879e-05
1.50879e-05
1.50879e-05
1.50879e-05
1.50879e-05
1.50635e-05
1.50635e-05
1.50635e-05
1.50635e-05
1.50635e-05
1.50635e-05
1.50635e-05
1.50635e-05
1.50635e-05
1.50391e-05
1.50391e-05
1.50391e-05
1.50391e-05
1.50391e-05
1.50391e-05
1.50391e-05
1.50391e-05
1.50391e-05
1.50391e-05
1.50391e-05
1.50391e-05
1.50391e-05
1.50391e-05
1.50391e-05
1.50391e-05
1.50391e-05
1.50391e-05
1.50391e-05
1.50391e-05
1.50146e-05
1.50146e-05
1.50146e-05
1.50146e-05
1.50146e-05
1.50146e-05
1.50146e-05
1.50146e-05
1.50146e-05
1.50146e-05
1.49902e-05
1.49902e-05
1.49902e-05
1.49902e-05
1.49902e-05
1.49902e-05
1.49902e-05
1.49902e-05
1.49902e-05
1.49902e-05
1.49902e-05
1.49902e-05
1.49902e-05
1.49902e-05
1.49658e-05
1.49658e-05
1.49658e-05
1.49658e-05
1.49658e-05
1.49658e-05
1.49658e-05
1.49658e-05
1.49658e-05
1.49658e-05
1.49414e-05
1.49414e-05
1.49414e-05
1.49414e-05
1.49414e-05
1.49414e-05
1.49414e-05
1.49414e-05
1.4917e-05
1.4917e-05
1.4917e-05
1.4917e-05
1.4917e-05
1.4917e-05
1.48926e-05
1.48926e-05
1.48926e-05
1.48926e-05
1.48926e-05
1.48926e-05
1.48926e-05
1.48926e-05
1.48926e-05
1.48926e-05
1.48926e-05
1.48926e-05
1.48926e-05
1.48926e-05
1.48926e-05
1.48682e-05
1.48682e-05
1.48682e-05
1.48682e-05
1.48682e-05
1.48682e-05
1.48682e-05
1.48682e-05
1.48437e-05
1.48437e-05
1.48437e-05
1.48437e-05
1.48437e-05
1.48437e-05
1.48437e-05
1.48437e-05
1.48437e-05
1.48437e-05
1.48437e-05
1.48437e-05
1.48437e-05
1.48437e-05
1.48437e-05
1.48437e-05
1.48437e-05
1.48437e-05
1.48437e-05
1.48437e-05
1.48437e-05
1.48193e-05
1.48193e-05
1.48193e-05
1.48193e-05
1.48193e-05
1.48193e-05
1.48193e-05
1.48193e-05
1.48193e-05
1.48193e-05
1.48193e-05
1.48193e-05
1.48193e-05
1.48193e-05
1.48193e-05
1.48193e-05
1.48193e-05
1.48193e-05
1.48193e-05
1.47949e-05
1.47949e-05
1.48193e-05
1.48193e-05
1.47949e-05
1.47949e-05
1.47949e-05
1.47949e-05
1.48193e-05
1.47949e-05
1.48193e-05
1.47949e-05
1.47949e-05
1.47949e-05
1.47949e-05
1.47949e-05
1.47949e-05
1.47949e-05
1.47949e-05
1.47949e-05
1.47949e-05
1.47949e-05
1.47949e-05
1.47949e-05
1.47949e-05
1.47949e-05
1.47705e-05
1.47705e-05
1.47705e-05
1.47705e-05
1.47705e-05
1.47705e-05
1.47705e-05
1.47705e-05
1.47705e-05
1.47705e-05
1.47705e-05
1.47461e-05
1.47461e-05
1.47461e-05
1.47461e-05
1.47461e-05
1.47461e-05
1.47461e-05
1.47461e-05
1.47461e-05
1.47461e-05
1.47461e-05
1.47461e-05
1.47217e-05
1.47461e-05
1.47217e-05
1.47217e-05
1.47217e-05
1.47217e-05
1.47217e-05
1.47217e-05
1.47217e-05
1.47217e-05
1.47217e-05
1.47217e-05
1.47217e-05
1.47217e-05
1.46973e-05
1.46973e-05
1.46973e-05
1.47217e-05
1.46973e-05
1.46973e-05
1.46729e-05
1.46729e-05
1.46729e-05
1.46729e-05
1.46729e-05
1.46729e-05
1.46729e-05
1.46729e-05
1.46729e-05
1.46729e-05
1.46729e-05
1.46729e-05
1.46729e-05
1.46729e-05
1.46729e-05
1.46729e-05
1.46729e-05
1.46729e-05
1.46729e-05
1.46484e-05
1.46484e-05
1.46729e-05
1.46484e-05
1.46484e-05
1.46484e-05
1.46484e-05
1.46484e-05
1.46484e-05
1.46484e-05
1.46484e-05
1.46484e-05
1.46484e-05
1.46484e-05
1.46484e-05
1.46484e-05
1.46484e-05
1.46484e-05
1.46484e-05
1.46484e-05
1.46484e-05
1.46484e-05
1.46484e-05
1.46484e-05
1.46484e-05
1.46484e-05
1.46484e-05
1.46484e-05
1.46484e-05
1.46484e-05
1.46484e-05
1.46484e-05
1.46484e-05
1.46484e-05
1.46484e-05
1.46484e-05
1.46484e-05
1.46484e-05
1.46484e-05
1.46484e-05
1.46484e-05
1.46484e-05
1.46484e-05
1.4624e-05
1.4624e-05
1.4624e-05
1.4624e-05
1.4624e-05
1.4624e-05
1.4624e-05
1.46484e-05
1.46484e-05
1.46484e-05
1.46484e-05
1.46484e-05
1.46484e-05
1.46484e-05
1.46484e-05
1.46484e-05
1.4624e-05
1.4624e-05
1.4624e-05
1.46484e-05
1.4624e-05
1.4624e-05
1.4624e-05
1.4624e-05
1.4624e-05
1.4624e-05
1.4624e-05
1.4624e-05
1.4624e-05
1.4624e-05
1.4624e-05
1.4624e-05
1.4624e-05
1.4624e-05
1.4624e-05
1.46484e-05
1.4624e-05
1.4624e-05
1.4624e-05
1.4624e-05
1.4624e-05
1.4624e-05
1.4624e-05
1.4624e-05
1.4624e-05
1.4624e-05
1.4624e-05
1.4624e-05
1.4624e-05
1.4624e-05
1.4624e-05
1.46484e-05
1.4624e-05
1.4624e-05
1.4624e-05
1.46484e-05
1.46484e-05
1.4624e-05
1.4624e-05
1.4624e-05
1.4624e-05
1.4624e-05
1.4624e-05
1.4624e-05
1.4624e-05
1.4624e-05
1.46484e-05
1.46484e-05
1.4624e-05
1.46484e-05
1.4624e-05
1.46484e-05
1.46484e-05
1.46484e-05
1.46484e-05
1.46484e-05
1.46484e-05
1.4624e-05
1.46484e-05
1.46484e-05
1.4624e-05
1.46484e-05
1.46484e-05
1.46484e-05
1.4624e-05
1.46484e-05
1.46484e-05
1.46484e-05
1.46484e-05
1.46484e-05
1.46484e-05
1.46484e-05
1.46484e-05
1.46484e-05
1.46484e-05
1.46484e-05
1.46484e-05
1.46484e-05
1.46484e-05
1.46484e-05
1.46484e-05
1.46484e-05
1.46484e-05
1.46484e-05
1.46484e-05
1.46484e-05
1.46484e-05
1.46484e-05
1.46484e-05
1.46484e-05
1.46484e-05
1.46484e-05
1.46484e-05
1.46484e-05
1.46484e-05
1.46484e-05
1.46484e-05
1.4624e-05
1.4624e-05
1.4624e-05
1.4624e-05
1.46484e-05
1.46484e-05
1.46484e-05
1.46484e-05
1.46484e-05
1.46484e-05
1.46484e-05
1.46484e-05
1.46484e-05
1.46484e-05
1.46484e-05
1.46484e-05
1.46484e-05
1.46484e-05
1.46484e-05
1.46484e-05
1.46484e-05
1.46484e-05
1.46484e-05
1.4624e-05
1.46484e-05
1.46484e-05
1.46484e-05
1.4624e-05
1.46484e-05
1.46484e-05
1.46484e-05
1.46484e-05
1.46484e-05
1.46484e-05
1.46484e-05
1.46484e-05
1.46484e-05
1.46484e-05
1.46484e-05
1.4624e-05
1.4624e-05
1.46484e-05
1.4624e-05
1.4624e-05
1.4624e-05
1.4624e-05
1.4624e-05
1.4624e-05
1.4624e-05
1.4624e-05
1.4624e-05
1.4624e-05
1.4624e-05
1.4624e-05
1.4624e-05
1.4624e-05
1.45996e-05
1.45996e-05
1.4624e-05
1.4624e-05
1.4624e-05
1.4624e-05
1.4624e-05
1.4624e-05
1.4624e-05
1.4624e-05
1.4624e-05
1.4624e-05
1.4624e-05
1.4624e-05
1.4624e-05
1.4624e-05
1.4624e-05
1.4624e-05
1.4624e-05
1.45996e-05
1.4624e-05
1.45996e-05
1.45996e-05
1.45996e-05
1.4624e-05
1.45996e-05
1.45996e-05
1.45996e-05
1.45996e-05
1.45996e-05
1.45996e-05
1.45996e-05
1.45996e-05
1.45996e-05
1.45996e-05
1.45996e-05
1.45996e-05
1.45996e-05
1.45996e-05
1.45996e-05
1.45996e-05
1.45996e-05
1.45996e-05
1.45996e-05
1.45996e-05
1.45996e-05
1.45996e-05
1.45996e-05
1.45996e-05
1.45996e-05
1.45996e-05
1.45996e-05
1.45996e-05
1.45996e-05
1.45752e-05
1.45752e-05
1.45752e-05
1.45752e-05
1.45752e-05
1.45752e-05
1.45752e-05
1.45752e-05
1.45752e-05
1.45752e-05
1.45752e-05
1.45752e-05
1.45752e-05
1.45752e-05
1.45752e-05
1.45752e-05
1.45752e-05
1.45752e-05
1.45752e-05
1.45752e-05
1.45752e-05
1.45752e-05
1.45752e-05
1.45752e-05
1.45752e-05
1.45508e-05
1.45508e-05
1.45752e-05
1.45752e-05
1.45752e-05
1.45752e-05
1.45752e-05
1.45752e-05
1.45752e-05
1.45752e-05
1.45752e-05
1.45752e-05
1.45752e-05
1.45752e-05
1.45752e-05
1.45996e-05
1.45752e-05
1.45996e-05
1.45996e-05
1.45996e-05
1.45996e-05
1.45996e-05
1.45996e-05
1.4624e-05
1.4624e-05
1.4624e-05
1.4624e-05
1.46484e-05
1.46484e-05
1.46484e-05
1.46484e-05
1.46484e-05
1.46484e-05
1.46484e-05
1.46484e-05
1.46729e-05
1.46729e-05
1.46973e-05
1.46973e-05
1.47217e-05
1.47217e-05
1.47461e-05
1.47461e-05
1.47461e-05
1.47461e-05
1.47705e-05
1.47949e-05
1.47949e-05
1.48193e-05
1.48193e-05
1.48437e-05
1.48437e-05
1.48437e-05
1.48682e-05
1.48682e-05
1.48926e-05
1.48926e-05
1.4917e-05
1.4917e-05
1.49414e-05
1.49414e-05
1.49658e-05
1.49658e-05
1.49902e-05
1.49902e-05
1.50146e-05
1.50146e-05
1.50391e-05
1.50391e-05
1.50635e-05
1.50635e-05
1.50879e-05
1.51123e-05
1.51123e-05
1.51367e-05
1.51367e-05
1.51611e-05
1.51611e-05
1.51855e-05
1.51855e-05
1.521e-05
1.521e-05
1.52344e-05
1.52344e-05
1.52344e-05
1.52588e-05
1.52588e-05
1.52832e-05
1.52832e-05
1.53076e-05
1.53076e-05
1.53076e-05
1.53076e-05
1.53076e-05
1.5332e-05
1.5332e-05
1.5332e-05
1.53564e-05
1.53564e-05
1.53809e-05
1.53809e-05
1.53809e-05
1.53809e-05
1.53809e-05
1.53809e-05
1.53809e-05
1.54053e-05
1.54053e-05
1.54053e-05
1.54053e-05
1.54053e-05
1.54053e-05
1.54053e-05
1.54053e-05
1.54053e-05
1.54297e-05
1.54297e-05
1.54297e-05
1.54297e-05
1.54297e-05
1.54297e-05
1.54297e-05
1.54297e-05
1.54297e-05
1.54297e-05
1.54297e-05
1.54297e-05
1.54297e-05
1.54297e-05
1.54297e-05
1.54297e-05
1.54297e-05
1.54297e-05
1.54297e-05
1.54297e-05
1.54541e-05
1.54297e-05
1.54541e-05
1.54541e-05
1.54541e-05
1.54541e-05
1.54541e-05
1.54541e-05
1.54541e-05
1.54541e-05
1.54785e-05
1.54785e-05
1.54785e-05
1.55029e-05
1.55029e-05
1.55029e-05
1.55273e-05
1.55273e-05
1.55273e-05
1.55273e-05
1.55273e-05
1.55273e-05
1.55518e-05
1.55762e-05
1.55762e-05
1.55762e-05
1.55762e-05
1.55762e-05
1.56006e-05
1.55762e-05
1.56006e-05
1.56006e-05
1.56006e-05
1.56006e-05
1.56006e-05
1.56006e-05
1.56006e-05
1.56006e-05
1.56006e-05
1.56006e-05
1.56006e-05
1.56006e-05
1.55762e-05
1.56006e-05
1.56006e-05
1.56006e-05
1.56006e-05
1.56006e-05
1.56006e-05
1.56006e-05
1.56006e-05
1.56006e-05
1.56006e-05
1.55762e-05
1.56006e-05
1.56006e-05
1.55762e-05
1.56006e-05
1.55762e-05
1.56006e-05
1.55762e-05
1.55762e-05
1.56006e-05
1.56006e-05
1.56006e-05
1.55762e-05
1.55762e-05
1.56006e-05
1.56006e-05
1.56006e-05
1.56006e-05
1.56006e-05
1.56006e-05
1.56006e-05
1.55762e-05
1.55762e-05
1.55762e-05
1.55762e-05
1.55762e-05
1.55762e-05
1.55762e-05
1.56006e-05
1.55762e-05
1.55762e-05
1.55762e-05
1.55762e-05
1.55762e-05
1.55762e-05
1.55762e-05
1.55762e-05
1.55762e-05
1.55762e-05
1.55762e-05
1.55762e-05
1.55762e-05
1.55762e-05
1.55762e-05
1.55762e-05
1.56006e-05
1.55762e-05
1.55762e-05
1.55762e-05
1.55762e-05
1.56006e-05
1.56006e-05
1.56006e-05
1.56006e-05
1.56006e-05
1.56006e-05
1.56006e-05
1.56006e-05
1.56006e-05
1.56006e-05
1.56006e-05
1.56006e-05
1.56006e-05
1.56006e-05
1.56006e-05
1.56006e-05
1.56006e-05
1.56006e-05
1.56006e-05
1.55762e-05
1.55762e-05
1.56006e-05
1.55762e-05
1.55762e-05
1.55762e-05
1.55762e-05
1.55762e-05
1.55762e-05
1.55518e-05
1.55762e-05
1.55762e-05
1.55518e-05
1.55518e-05
1.55518e-05
1.55518e-05
1.55518e-05
1.55518e-05
1.55518e-05
1.55518e-05
1.55518e-05
1.55273e-05
1.55273e-05
1.55273e-05
1.55273e-05
1.55273e-05
1.55273e-05
1.55273e-05
1.55273e-05
1.55273e-05
1.55273e-05
1.55273e-05
1.55273e-05
1.55273e-05
1.55273e-05
1.55273e-05
1.55273e-05
1.55273e-05
1.55273e-05
1.55273e-05
1.55273e-05
1.55518e-05
1.55518e-05
1.55518e-05
1.55518e-05
1.55518e-05
1.55518e-05
1.55518e-05
1.55518e-05
1.55518e-05
1.55762e-05
1.55518e-05
1.55762e-05
1.55762e-05
1.55762e-05
1.55762e-05
1.55762e-05
1.56006e-05
1.56006e-05
1.56006e-05
1.56006e-05
1.56006e-05
1.56006e-05
1.5625e-05
1.5625e-05
1.5625e-05
1.56494e-05
1.56494e-05
1.56494e-05
1.56494e-05
1.56738e-05
1.56738e-05
1.56982e-05
1.56982e-05
1.56982e-05
1.56982e-05
1.57227e-05
1.57227e-05
1.57471e-05
1.57471e-05
1.57715e-05
1.57715e-05
1.57715e-05
1.57715e-05
1.57959e-05
1.57959e-05
1.57959e-05
1.58203e-05
1.58203e-05
1.58203e-05
1.58447e-05
1.58447e-05
1.58447e-05
1.58447e-05
1.58691e-05
1.58691e-05
1.58936e-05
1.58936e-05
1.58936e-05
1.58936e-05
1.5918e-05
1.59424e-05
1.59424e-05
1.59668e-05
1.59668e-05
1.59912e-05
1.59912e-05
1.59912e-05
1.59912e-05
1.59912e-05
1.60156e-05
1.60156e-05
1.60156e-05
1.60156e-05
1.60156e-05
1.604e-05
1.604e-05
1.604e-05
1.604e-05
1.604e-05
1.604e-05
1.604e-05
1.604e-05
1.604e-05
1.604e-05
1.604e-05
1.60645e-05
1.604e-05
1.604e-05
1.604e-05
1.604e-05
1.604e-05
1.604e-05
1.604e-05
1.604e-05
1.604e-05
1.604e-05
1.604e-05
1.60156e-05
1.60156e-05
1.60156e-05
1.60156e-05
1.60156e-05
1.60156e-05
1.60156e-05
1.59912e-05
1.59912e-05
1.59912e-05
1.59912e-05
1.59912e-05
1.59912e-05
1.59912e-05
1.59912e-05
1.59912e-05
1.59912e-05
1.59912e-05
1.59912e-05
1.59912e-05
1.59912e-05
1.59912e-05
1.59912e-05
1.59912e-05
1.59912e-05
1.59912e-05
1.59912e-05
1.59912e-05
1.59912e-05
1.59912e-05
1.60156e-05
1.59912e-05
1.60156e-05
1.60156e-05
1.60156e-05
1.59912e-05
1.60156e-05
1.60156e-05
1.59912e-05
1.59912e-05
1.59912e-05
1.59912e-05
1.59912e-05
1.59912e-05
1.59912e-05
1.59912e-05
1.59912e-05
1.59912e-05
1.59912e-05
1.59912e-05
1.59668e-05
1.59668e-05
1.59668e-05
1.59668e-05
1.59668e-05
1.59668e-05
1.59668e-05
1.59668e-05
1.59668e-05
1.59668e-05
1.59668e-05
1.59668e-05
1.59668e-05
1.59668e-05
1.59668e-05
1.59668e-05
1.59668e-05
1.59668e-05
1.59668e-05
1.59668e-05
1.59668e-05
1.59668e-05
1.59668e-05
1.59668e-05
1.59668e-05
1.59668e-05
1.59912e-05
1.59912e-05
1.59912e-05
1.59912e-05
1.60156e-05
1.60156e-05
1.60156e-05
1.604e-05
1.604e-05
1.604e-05
1.604e-05
1.604e-05
1.604e-05
1.604e-05
1.604e-05
1.604e-05
1.60645e-05
1.60645e-05
1.60645e-05
1.604e-05
1.60645e-05
1.60645e-05
1.604e-05
1.604e-05
1.604e-05
1.60645e-05
1.604e-05
1.604e-05
1.604e-05
1.604e-05
1.604e-05
1.604e-05
1.604e-05
1.604e-05
1.604e-05
1.60156e-05
1.60156e-05
1.60156e-05
1.60156e-05
1.60156e-05
1.60156e-05
1.60156e-05
1.60156e-05
1.60156e-05
1.60156e-05
1.60156e-05
1.60156e-05
1.60156e-05
1.60156e-05
1.60156e-05
1.60156e-05
1.60156e-05
1.60156e-05
1.60156e-05
1.60156e-05
1.60156e-05
1.60156e-05
1.60156e-05
1.59912e-05
1.60156e-05
1.59912e-05
1.59912e-05
1.59912e-05
1.59912e-05
1.59912e-05
1.59912e-05
1.59912e-05
1.60156e-05
1.60156e-05
1.59912e-05
1.60156e-05
1.60156e-05
1.60156e-05
1.60156e-05
1.60156e-05
1.60156e-05
1.604e-05
1.604e-05
1.604e-05
1.60645e-05
1.60645e-05
1.60645e-05
1.60889e-05
1.60889e-05
1.60889e-05
1.60889e-05
1.60889e-05
1.60889e-05
1.60889e-05
1.60889e-05
1.60889e-05
1.60889e-05
1.60889e-05
1.60889e-05
1.60889e-05
1.60889e-05
1.60889e-05
1.60889e-05
1.60889e-05
1.60889e-05
1.60889e-05
1.60889e-05
1.60889e-05
1.60889e-05
1.61133e-05
1.60889e-05
1.60889e-05
1.61133e-05
1.61133e-05
1.61133e-05
1.61133e-05
1.61133e-05
1.61133e-05
1.61133e-05
1.61133e-05
1.61133e-05
1.61133e-05
1.61133e-05
1.61133e-05
1.61377e-05
1.61377e-05
1.61377e-05
1.61377e-05
1.61377e-05
1.61377e-05
1.61377e-05
1.61377e-05
1.61377e-05
1.61377e-05
1.61377e-05
1.61377e-05
1.61377e-05
1.61377e-05
1.61377e-05
1.61377e-05
1.61377e-05
1.61377e-05
1.61377e-05
1.61377e-05
1.61377e-05
1.61377e-05
1.61621e-05
1.61621e-05
1.61621e-05
1.61621e-05
1.61621e-05
1.61621e-05
1.61621e-05
1.61621e-05
1.61621e-05
1.61621e-05
1.61621e-05
1.61621e-05
1.61621e-05
1.61621e-05
1.61621e-05
1.61621e-05
1.61377e-05
1.61377e-05
1.61377e-05
1.61377e-05
1.61377e-05
1.61377e-05
1.61377e-05
1.61377e-05
1.61377e-05
1.61133e-05
1.61133e-05
1.61133e-05
1.61133e-05
1.61133e-05
1.61133e-05
1.61133e-05
1.61133e-05
1.61133e-05
1.61133e-05
1.61133e-05
1.61133e-05
1.60889e-05
1.60889e-05
1.60889e-05
1.60889e-05
1.60889e-05
1.60889e-05
1.60889e-05
1.60645e-05
1.60645e-05
1.604e-05
1.604e-05
1.60645e-05
1.604e-05
1.60645e-05
1.604e-05
1.604e-05
1.604e-05
1.604e-05
1.604e-05
1.604e-05
1.604e-05
1.604e-05
1.604e-05
1.604e-05
1.60156e-05
1.604e-05
1.60156e-05
1.59912e-05
1.60156e-05
1.60156e-05
1.60156e-05
1.59912e-05
1.59912e-05
1.59912e-05
1.59912e-05
1.59912e-05
1.59912e-05
1.59912e-05
1.59912e-05
1.59668e-05
1.59912e-05
1.59668e-05
1.59668e-05
1.59668e-05
1.59668e-05
1.59668e-05
1.59424e-05
1.59424e-05
1.59424e-05
1.59424e-05
1.59424e-05
1.5918e-05
1.5918e-05
1.5918e-05
1.5918e-05
1.5918e-05
1.5918e-05
1.58936e-05
1.58936e-05
1.58936e-05
1.58936e-05
1.58936e-05
1.58936e-05
1.58691e-05
1.58691e-05
1.58691e-05
1.58447e-05
1.58447e-05
1.58447e-05
1.58691e-05
1.58447e-05
1.58691e-05
1.58447e-05
1.58447e-05
1.58447e-05
1.58447e-05
1.58447e-05
1.58447e-05
1.58447e-05
1.58203e-05
1.58203e-05
1.58203e-05
1.58203e-05
1.58203e-05
1.58203e-05
1.57959e-05
1.58203e-05
1.57959e-05
1.57959e-05
1.57959e-05
1.57959e-05
1.57959e-05
1.57959e-05
1.57959e-05
1.57959e-05
1.57959e-05
1.57959e-05
1.57959e-05
1.57959e-05
1.57959e-05
1.57715e-05
1.57715e-05
1.57715e-05
1.57715e-05
1.57715e-05
1.57715e-05
1.57715e-05
1.57715e-05
1.57715e-05
1.57715e-05
1.57715e-05
1.57715e-05
1.57715e-05
1.57715e-05
1.57715e-05
1.57715e-05
1.57715e-05
1.57471e-05
1.57471e-05
1.57471e-05
1.57471e-05
1.57471e-05
1.57471e-05
1.57471e-05
1.57471e-05
1.57471e-05
1.57471e-05
1.57471e-05
1.57471e-05
1.57471e-05
1.57471e-05
1.57471e-05
1.57227e-05
1.57227e-05
1.57227e-05
1.57227e-05
1.57227e-05
1.57227e-05
1.57227e-05
1.57227e-05
1.57227e-05
1.57227e-05
1.57227e-05
1.56982e-05
1.57227e-05
1.57227e-05
1.57227e-05
1.56982e-05
1.57227e-05
1.57227e-05
1.57227e-05
1.56982e-05
1.57227e-05
1.57227e-05
1.57227e-05
1.57227e-05
1.57227e-05
1.57227e-05
1.57227e-05
1.57227e-05
1.56982e-05
1.56982e-05
1.56982e-05
1.56982e-05
1.56982e-05
1.56982e-05
1.56982e-05
1.56982e-05
1.56982e-05
1.56982e-05
1.56982e-05
1.56982e-05
1.56982e-05
1.56738e-05
1.56738e-05
1.56738e-05
1.56982e-05
1.56982e-05
1.56738e-05
1.56738e-05
1.56738e-05
1.56738e-05
1.56738e-05
1.56738e-05
1.56738e-05
1.56738e-05
1.56738e-05
1.56738e-05
1.56738e-05
1.56738e-05
1.56738e-05
1.56738e-05
1.56494e-05
1.56494e-05
1.56494e-05
1.56738e-05
1.56494e-05
1.56494e-05
1.56494e-05
1.56494e-05
1.56738e-05
1.56738e-05
1.56738e-05
1.56738e-05
1.56494e-05
1.56494e-05
1.56738e-05
1.56494e-05
1.56738e-05
1.56738e-05
1.56738e-05
1.56738e-05
1.56738e-05
1.56738e-05
1.56738e-05
1.56738e-05
1.56738e-05
1.56738e-05
1.56738e-05
1.56738e-05
1.56738e-05
1.56738e-05
1.56738e-05
1.56738e-05
1.56738e-05
1.56738e-05
1.56738e-05
1.56494e-05
1.56494e-05
1.56494e-05
1.56494e-05
1.56494e-05
1.56494e-05
1.56494e-05
1.56494e-05
1.56494e-05
1.56494e-05
1.56494e-05
1.56494e-05
1.56494e-05
1.56494e-05
1.56494e-05
1.56494e-05
1.56494e-05
1.56494e-05
1.56494e-05
1.56494e-05
1.56494e-05
1.56494e-05
1.56494e-05
1.56494e-05
1.5625e-05
1.5625e-05
1.5625e-05
1.5625e-05
1.5625e-05
1.5625e-05
1.5625e-05
1.5625e-05
1.5625e-05
1.5625e-05
1.5625e-05
1.5625e-05
1.5625e-05
1.5625e-05
1.5625e-05
1.5625e-05
1.56006e-05
1.5625e-05
1.5625e-05
1.5625e-05
1.56006e-05
1.5625e-05
1.5625e-05
1.5625e-05
1.56006e-05
1.5625e-05
1.5625e-05
1.5625e-05
1.5625e-05
1.5625e-05
1.5625e-05
1.5625e-05
1.5625e-05
1.5625e-05
1.5625e-05
1.56006e-05
1.56006e-05
1.56006e-05
1.56006e-05
1.56006e-05
1.56006e-05
1.56006e-05
1.56006e-05
1.5625e-05
1.5625e-05
1.5625e-05
1.5625e-05
1.5625e-05
1.5625e-05
1.5625e-05
1.5625e-05
1.5625e-05
1.5625e-05
1.5625e-05
1.5625e-05
1.5625e-05
1.5625e-05
1.5625e-05
1.5625e-05
1.5625e-05
1.5625e-05
1.5625e-05
1.5625e-05
1.5625e-05
1.5625e-05
1.5625e-05
1.5625e-05
1.5625e-05
1.5625e-05
1.5625e-05
1.5625e-05
1.5625e-05
1.5625e-05
1.5625e-05
1.5625e-05
1.5625e-05
1.5625e-05
1.5625e-05
1.5625e-05
1.5625e-05
1.5625e-05
1.5625e-05
1.5625e-05
1.5625e-05
1.5625e-05
1.5625e-05
1.5625e-05
1.5625e-05
1.5625e-05
1.5625e-05
1.5625e-05
1.5625e-05
1.5625e-05
1.5625e-05
1.5625e-05
1.5625e-05
1.5625e-05
1.56006e-05
1.56006e-05
1.56006e-05
1.5625e-05
1.5625e-05
1.5625e-05
1.5625e-05
1.5625e-05
1.5625e-05
1.5625e-05
1.5625e-05
1.5625e-05
1.5625e-05
1.5625e-05
1.5625e-05
1.5625e-05
1.5625e-05
1.5625e-05
1.5625e-05
1.5625e-05
1.56006e-05
1.56006e-05
1.5625e-05
1.56006e-05
1.56006e-05
1.56006e-05
1.56006e-05
1.56006e-05
1.56006e-05
1.5625e-05
1.5625e-05
1.56006e-05
1.56006e-05
1.5625e-05
1.5625e-05
1.56006e-05
1.56006e-05
1.56006e-05
1.56006e-05
1.56006e-05
1.56006e-05
1.56006e-05
1.56006e-05
1.56006e-05
1.56006e-05
1.56006e-05
1.56006e-05
1.56006e-05
1.56006e-05
1.56006e-05
1.56006e-05
1.56006e-05
1.56006e-05
1.56006e-05
1.56006e-05
1.56006e-05
1.56006e-05
1.56006e-05
1.56006e-05
1.56006e-05
1.56006e-05
1.56006e-05
1.56006e-05
1.56006e-05
1.56006e-05
1.56006e-05
1.55762e-05
1.55762e-05
1.55762e-05
1.55762e-05
1.55762e-05
1.55762e-05
1.55762e-05
1.56006e-05
1.55762e-05
1.56006e-05
1.56006e-05
1.56006e-05
1.56006e-05
1.56006e-05
1.56006e-05
1.55762e-05
1.56006e-05
1.55762e-05
1.55762e-05
1.55762e-05
1.55762e-05
1.55762e-05
1.55762e-05
1.55762e-05
1.55762e-05
1.55762e-05
1.55762e-05
1.55762e-05
1.55762e-05
1.55762e-05
1.55762e-05
1.55762e-05
1.55762e-05
1.55762e-05
1.55762e-05
1.55762e-05
1.55762e-05
1.55762e-05
1.55762e-05
1.55762e-05
1.55762e-05
1.55518e-05
1.55518e-05
1.55518e-05
1.55762e-05
1.55518e-05
1.55518e-05
1.55518e-05
1.55762e-05
1.55518e-05
1.55518e-05
1.55518e-05
1.55518e-05
1.55518e-05
1.55518e-05
1.55518e-05
1.55518e-05
1.55518e-05
1.55518e-05
1.55518e-05
1.55518e-05
1.55518e-05
1.55518e-05
1.55518e-05
1.55518e-05
1.55273e-05
1.55273e-05
1.55273e-05
1.55273e-05
1.55273e-05
1.55273e-05
1.55273e-05
1.55273e-05
1.55273e-05
1.55273e-05
1.55273e-05
1.55273e-05
1.55273e-05
1.55273e-05
1.55273e-05
1.55273e-05
1.55273e-05
1.55273e-05
1.55273e-05
1.55273e-05
1.55029e-05
1.55273e-05
1.55273e-05
1.55273e-05
1.55273e-05
1.55273e-05
1.55273e-05
1.55273e-05
1.55273e-05
1.55273e-05
1.55273e-05
1.55273e-05
1.55029e-05
1.55273e-05
1.55273e-05
1.55273e-05
1.55273e-05
1.55273e-05
1.55273e-05
1.55273e-05
1.55273e-05
1.55029e-05
1.55029e-05
1.55273e-05
1.55273e-05
1.55273e-05
1.55029e-05
1.55029e-05
1.55029e-05
1.55029e-05
1.55029e-05
1.55029e-05
1.55029e-05
1.55029e-05
1.55029e-05
1.55029e-05
1.55029e-05
1.55029e-05
1.55029e-05
1.55029e-05
1.55029e-05
1.54785e-05
1.54785e-05
1.55029e-05
1.55029e-05
1.55029e-05
1.54785e-05
1.55029e-05
1.55029e-05
1.55029e-05
1.55029e-05
1.55029e-05
1.55029e-05
1.55029e-05
1.55029e-05
1.55029e-05
1.55029e-05
1.54785e-05
1.54785e-05
1.54785e-05
1.54785e-05
1.54785e-05
1.54785e-05
1.54785e-05
1.54785e-05
1.54785e-05
1.54785e-05
1.54785e-05
1.54785e-05
1.54785e-05
1.54785e-05
1.54785e-05
1.54541e-05
1.54785e-05
1.54785e-05
1.54785e-05
1.54785e-05
1.54785e-05
1.54785e-05
1.54785e-05
1.54541e-05
1.54785e-05
1.54785e-05
1.54785e-05
1.54785e-05
1.54541e-05
1.54541e-05
1.54541e-05
1.54541e-05
1.54541e-05
1.54541e-05
1.54541e-05
1.54541e-05
1.54541e-05
1.54541e-05
1.54541e-05
1.54541e-05
1.54541e-05
1.54541e-05
1.54541e-05
1.54297e-05
1.54541e-05
1.54541e-05
1.54541e-05
1.54297e-05
1.54297e-05
1.54297e-05
1.54541e-05
1.54541e-05
1.54297e-05
1.54541e-05
1.54541e-05
1.54297e-05
1.54541e-05
1.54297e-05
1.54541e-05
1.54297e-05
1.54541e-05
1.54297e-05
1.54541e-05
1.54297e-05
1.54297e-05
1.54297e-05
1.54297e-05
1.54297e-05
1.54297e-05
1.54297e-05
1.54297e-05
1.54297e-05
1.54297e-05
1.54297e-05
1.54297e-05
1.54297e-05
1.54297e-05
1.54297e-05
1.54297e-05
1.54297e-05
1.54297e-05
1.54297e-05
1.54297e-05
1.54297e-05
1.54297e-05
1.54297e-05
1.54297e-05
1.54297e-05
1.54297e-05
1.54297e-05
1.54297e-05
1.54297e-05
1.54297e-05
1.54297e-05
1.54297e-05
1.54297e-05
1.54297e-05
1.54297e-05
1.54297e-05
1.54053e-05
1.54297e-05
1.54297e-05
1.54297e-05
1.54053e-05
1.54053e-05
1.54053e-05
1.54053e-05
1.54053e-05
1.54053e-05
1.54053e-05
1.53809e-05
1.54053e-05
1.54053e-05
1.54053e-05
1.54053e-05
1.54053e-05
1.54053e-05
1.54053e-05
1.54053e-05
1.54053e-05
1.54053e-05
1.54053e-05
1.54053e-05
1.54053e-05
1.54053e-05
1.54053e-05
1.54053e-05
1.54053e-05
1.54053e-05
1.54053e-05
1.54053e-05
1.54053e-05
1.54053e-05
1.54053e-05
1.54053e-05
1.54053e-05
1.54053e-05
1.54053e-05
1.54053e-05
1.54053e-05
1.54053e-05
1.54053e-05
1.54053e-05
1.53809e-05
1.54053e-05
1.54053e-05
1.54053e-05
1.53809e-05
1.54053e-05
1.54053e-05
1.54053e-05
1.54053e-05
1.54053e-05
1.54053e-05
1.54053e-05
1.53809e-05
1.53809e-05
1.54053e-05
1.53809e-05
1.54053e-05
1.54053e-05
1.54053e-05
1.54053e-05
1.53809e-05
1.54053e-05
1.53809e-05
1.53809e-05
1.54053e-05
1.53809e-05
1.53809e-05
1.54053e-05
1.54053e-05
1.53809e-05
1.53809e-05
1.53809e-05
1.53809e-05
1.53809e-05
1.53809e-05
1.53809e-05
1.53809e-05
1.53809e-05
1.53809e-05
1.54053e-05
1.54053e-05
1.54053e-05
1.53809e-05
1.54053e-05
1.54053e-05
1.54053e-05
1.54053e-05
1.54053e-05
1.54053e-05
1.54053e-05
1.54053e-05
1.54053e-05
1.54053e-05
1.54053e-05
1.54053e-05
1.54053e-05
1.54053e-05
1.54053e-05
1.54053e-05
1.54053e-05
1.54297e-05
1.54297e-05
1.54297e-05
1.54297e-05
1.54297e-05
1.54297e-05
1.54297e-05
1.54297e-05
1.54297e-05
1.54297e-05
1.54297e-05
1.54297e-05
1.54297e-05
1.54297e-05
1.54297e-05
1.54541e-05
1.54541e-05
1.54541e-05
1.54541e-05
1.54541e-05
1.54541e-05
1.54541e-05
1.54541e-05
1.54541e-05
1.54785e-05
1.54785e-05
1.54785e-05
1.54785e-05
1.54785e-05
1.54785e-05
1.54785e-05
1.55029e-05
1.55029e-05
1.54785e-05
1.54785e-05
1.55029e-05
1.55029e-05
1.55029e-05
1.55029e-05
1.55029e-05
1.55029e-05
1.55029e-05
1.55273e-05
1.55273e-05
1.55273e-05
1.55273e-05
1.55273e-05
1.55273e-05
1.55273e-05
1.55273e-05
1.55273e-05
1.55273e-05
1.55273e-05
1.55518e-05
1.55518e-05
1.55518e-05
1.55518e-05
1.55518e-05
1.55518e-05
1.55518e-05
1.55518e-05
1.55518e-05
1.55762e-05
1.55762e-05
1.55518e-05
1.55762e-05
1.55762e-05
1.55762e-05
1.55762e-05
1.55762e-05
1.55762e-05
1.55762e-05
1.55762e-05
1.55762e-05
1.56006e-05
1.56006e-05
1.55762e-05
1.56006e-05
1.56006e-05
1.56006e-05
1.56006e-05
1.56006e-05
1.56006e-05
1.56006e-05
1.56006e-05
1.56006e-05
1.56006e-05
1.56006e-05
1.56006e-05
1.56006e-05
1.56006e-05
1.56006e-05
1.56006e-05
1.56006e-05
1.56006e-05
1.56006e-05
1.56006e-05
1.56006e-05
1.56006e-05
1.56006e-05
1.56006e-05
1.56006e-05
1.56006e-05
1.56006e-05
1.56006e-05
1.56006e-05
1.56006e-05
1.56006e-05
1.56006e-05
1.56006e-05
1.56006e-05
1.56006e-05
1.56006e-05
1.56006e-05
1.56006e-05
1.56006e-05
1.56006e-05
1.56006e-05
1.56006e-05
1.56006e-05
1.56006e-05
1.56006e-05
1.56006e-05
1.56006e-05
1.56006e-05
1.56006e-05
1.56006e-05
1.56006e-05
1.56006e-05
1.56006e-05
1.56006e-05
1.56006e-05
1.56006e-05
1.56006e-05
1.56006e-05
1.56006e-05
1.56006e-05
1.56006e-05
1.56006e-05
1.56006e-05
1.56006e-05
1.56006e-05
1.56006e-05
1.56006e-05
1.56006e-05
1.56006e-05
1.56006e-05
1.56006e-05
1.56006e-05
1.56006e-05
1.56006e-05
1.56006e-05
1.56006e-05
1.56006e-05
1.55762e-05
1.55762e-05
1.55762e-05
1.55762e-05
1.55762e-05
1.56006e-05
1.56006e-05
1.56006e-05
1.56006e-05
1.56006e-05
1.55762e-05
1.56006e-05
1.56006e-05
1.56006e-05
1.56006e-05
1.56006e-05
1.56006e-05
1.56006e-05
1.56006e-05
1.55762e-05
1.55762e-05
1.55762e-05
1.55518e-05
1.55762e-05
1.55762e-05
1.55762e-05
1.55762e-05
1.55762e-05
1.55762e-05
1.55762e-05
1.55762e-05
1.55762e-05
1.55762e-05
1.55762e-05
1.55762e-05
1.55762e-05
1.55762e-05
1.55762e-05
1.55762e-05
1.55762e-05
1.55762e-05
1.55762e-05
1.55762e-05
1.55762e-05
1.55762e-05
1.55762e-05
1.55762e-05
1.55762e-05
1.55762e-05
1.55762e-05
1.55518e-05
1.55518e-05
1.55518e-05
1.55518e-05
1.55518e-05
1.55518e-05
1.55762e-05
1.55518e-05
1.55518e-05
1.55518e-05
1.55518e-05
1.55518e-05
1.55518e-05
1.55518e-05
1.55518e-05
1.55518e-05
1.55518e-05
1.55518e-05
1.55518e-05
1.55518e-05
1.55518e-05
1.55518e-05
1.55518e-05
1.55518e-05
1.55518e-05
1.55273e-05
1.55273e-05
1.55273e-05
1.55273e-05
1.55273e-05
1.55273e-05
1.55273e-05
1.55273e-05
1.55273e-05
1.55273e-05
1.55273e-05
1.55273e-05
1.55273e-05
1.55273e-05
1.55273e-05
1.55273e-05
1.55273e-05
1.55273e-05
1.55273e-05
1.55273e-05
1.55273e-05
1.55273e-05
1.55273e-05
1.55273e-05
1.55029e-05
1.55029e-05
1.55029e-05
1.55029e-05
1.55029e-05
1.55029e-05
1.55029e-05
1.55029e-05
1.55029e-05
1.55029e-05
1.55029e-05
1.55029e-05
1.54785e-05
1.54785e-05
1.54785e-05
1.55029e-05
1.54785e-05
1.54785e-05
1.54785e-05
1.54541e-05
1.54541e-05
1.54541e-05
1.54541e-05
1.54541e-05
1.54541e-05
1.54541e-05
1.54541e-05
1.54541e-05
1.54541e-05
1.54541e-05
1.54541e-05
1.54541e-05
1.54541e-05
1.54541e-05
1.54541e-05
1.54297e-05
1.54541e-05
1.54297e-05
1.54541e-05
1.54297e-05
1.54297e-05
1.54297e-05
1.54297e-05
1.54297e-05
1.54297e-05
1.54297e-05
1.54297e-05
1.54297e-05
1.54297e-05
1.54297e-05
1.54297e-05
1.54297e-05
1.54297e-05
1.54297e-05
1.54297e-05
1.54297e-05
1.54297e-05
1.54297e-05
1.54297e-05
1.54297e-05
1.54053e-05
1.54053e-05
1.54053e-05
1.54297e-05
1.54297e-05
1.54053e-05
1.54053e-05
1.54053e-05
1.54053e-05
1.54053e-05
1.54053e-05
1.54053e-05
1.54053e-05
1.54053e-05
1.54053e-05
1.54053e-05
1.54053e-05
1.54053e-05
1.54053e-05
1.53809e-05
1.53809e-05
1.53809e-05
1.53809e-05
1.53809e-05
1.53809e-05
1.53809e-05
1.53809e-05
1.53809e-05
1.53809e-05
1.53809e-05
1.53809e-05
1.53809e-05
1.53809e-05
1.53809e-05
1.53809e-05
1.53809e-05
1.53809e-05
1.53809e-05
1.53809e-05
1.53809e-05
1.53809e-05
1.53564e-05
1.53809e-05
1.53564e-05
1.53564e-05
1.53564e-05
1.53564e-05
1.53564e-05
1.53564e-05
1.53564e-05
1.53564e-05
1.53564e-05
1.53564e-05
1.53564e-05
1.53564e-05
1.53564e-05
1.53564e-05
1.5332e-05
1.5332e-05
1.5332e-05
1.5332e-05
1.5332e-05
1.5332e-05
1.5332e-05
1.5332e-05
1.5332e-05
1.5332e-05
1.5332e-05
1.5332e-05
1.5332e-05
1.5332e-05
1.5332e-05
1.5332e-05
1.5332e-05
1.5332e-05
1.53076e-05
1.5332e-05
1.5332e-05
1.5332e-05
1.53076e-05
1.53076e-05
1.53076e-05
1.53076e-05
1.53076e-05
1.53076e-05
1.53076e-05
1.53076e-05
1.53076e-05
1.53076e-05
1.53076e-05
1.53076e-05
1.53076e-05
1.53076e-05
1.53076e-05
1.53076e-05
1.53076e-05
1.53076e-05
1.53076e-05
1.53076e-05
1.53076e-05
1.53076e-05
1.53076e-05
1.53076e-05
1.52832e-05
1.52832e-05
1.52832e-05
1.52832e-05
1.53076e-05
1.52832e-05
1.52832e-05
1.52832e-05
1.52832e-05
1.52832e-05
1.52832e-05
1.52832e-05
1.52832e-05
1.52832e-05
1.52832e-05
1.52832e-05
1.52832e-05
1.52832e-05
1.52832e-05
1.52832e-05
1.52832e-05
1.52832e-05
1.52588e-05
1.52832e-05
1.52588e-05
1.52588e-05
1.52588e-05
1.52588e-05
1.52588e-05
1.52588e-05
1.52588e-05
1.52588e-05
1.52588e-05
1.52588e-05
1.52588e-05
1.52588e-05
1.52588e-05
1.52344e-05
1.52344e-05
1.52588e-05
1.52588e-05
1.52588e-05
1.52588e-05
1.52588e-05
1.52588e-05
1.52588e-05
1.52588e-05
1.52588e-05
1.52588e-05
1.52588e-05
1.52588e-05
1.52588e-05
1.52344e-05
1.52344e-05
1.52344e-05
1.52344e-05
1.52344e-05
1.52344e-05
1.52344e-05
1.52344e-05
1.52344e-05
1.52344e-05
1.52344e-05
1.52344e-05
1.52344e-05
1.52344e-05
1.52588e-05
1.52588e-05
1.52344e-05
1.52588e-05
1.52588e-05
1.52588e-05
1.52588e-05
1.52588e-05
1.52588e-05
1.52588e-05
1.52588e-05
1.52588e-05
1.52588e-05
1.52588e-05
1.52588e-05
1.52588e-05
1.52588e-05
1.52588e-05
1.52344e-05
1.52588e-05
1.52588e-05
1.52588e-05
1.52588e-05
1.52588e-05
1.52588e-05
1.52588e-05
1.52588e-05
1.52588e-05
1.52588e-05
1.52588e-05
1.52588e-05
1.52588e-05
1.52588e-05
1.52588e-05
1.52588e-05
1.52588e-05
1.52588e-05
1.52588e-05
1.52588e-05
1.52588e-05
1.52588e-05
1.52588e-05
1.52588e-05
1.52588e-05
1.52588e-05
1.52588e-05
1.52588e-05
1.52588e-05
1.52588e-05
1.52588e-05
1.52588e-05
1.52588e-05
1.52588e-05
1.52588e-05
1.52588e-05
1.52344e-05
1.52588e-05
1.52588e-05
1.52588e-05
1.52588e-05
1.52588e-05
1.52588e-05
1.52344e-05
1.52588e-05
1.52344e-05
1.52344e-05
1.52344e-05
1.52344e-05
1.52344e-05
1.52344e-05
1.52344e-05
1.52344e-05
1.52344e-05
1.52344e-05
1.52344e-05
1.52344e-05
1.52344e-05
1.52344e-05
1.52344e-05
1.52344e-05
1.52344e-05
1.52344e-05
1.52344e-05
1.52344e-05
1.52344e-05
1.52344e-05
1.52344e-05
1.52344e-05
1.52344e-05
1.52344e-05
1.521e-05
1.521e-05
1.521e-05
1.521e-05
1.52344e-05
1.521e-05
1.52344e-05
1.52344e-05
1.52344e-05
1.52344e-05
1.52344e-05
1.52344e-05
1.521e-05
1.52344e-05
1.521e-05
1.521e-05
1.52344e-05
1.52344e-05
1.521e-05
1.521e-05
1.521e-05
1.521e-05
1.521e-05
1.521e-05
1.521e-05
1.521e-05
1.521e-05
1.521e-05
1.521e-05
1.521e-05
1.521e-05
1.521e-05
1.521e-05
1.521e-05
1.521e-05
1.521e-05
1.521e-05
1.521e-05
1.521e-05
1.521e-05
1.521e-05
1.521e-05
1.521e-05
1.521e-05
1.521e-05
1.521e-05
1.521e-05
1.521e-05
1.51855e-05
1.521e-05
1.521e-05
1.521e-05
1.521e-05
1.521e-05
1.521e-05
1.521e-05
1.521e-05
1.521e-05
1.521e-05
1.521e-05
1.521e-05
1.521e-05
1.521e-05
1.51855e-05
1.51855e-05
1.51855e-05
1.51855e-05
1.51855e-05
1.51855e-05
1.51855e-05
1.521e-05
1.521e-05
1.521e-05
1.521e-05
1.521e-05
1.521e-05
1.521e-05
1.521e-05
1.521e-05
1.521e-05
1.521e-05
1.521e-05
1.521e-05
1.521e-05
1.521e-05
1.521e-05
1.521e-05
1.521e-05
1.52344e-05
1.52344e-05
1.52344e-05
1.52344e-05
1.52344e-05
1.52344e-05
1.52588e-05
1.52588e-05
1.52588e-05
1.52832e-05
1.52832e-05
1.52832e-05
1.52832e-05
1.53076e-05
1.53076e-05
1.53076e-05
1.5332e-05
1.5332e-05
1.5332e-05
1.53564e-05
1.53564e-05
1.53809e-05
1.53809e-05
1.53809e-05
1.54053e-05
1.54053e-05
1.54297e-05
1.54297e-05
1.54297e-05
1.54541e-05
1.54541e-05
1.54785e-05
1.55029e-05
1.55029e-05
1.55273e-05
1.55273e-05
1.55518e-05
1.55518e-05
1.55762e-05
1.56006e-05
1.56006e-05
1.56006e-05
1.56006e-05
1.5625e-05
1.56494e-05
1.56494e-05
1.56738e-05
1.56982e-05
1.56982e-05
1.57227e-05
1.57471e-05
1.57715e-05
1.57715e-05
1.57959e-05
1.57959e-05
1.58203e-05
1.58447e-05
1.58447e-05
1.58691e-05
1.58936e-05
1.58936e-05
1.5918e-05
1.5918e-05
1.59424e-05
1.5918e-05
1.59668e-05
1.59668e-05
1.59912e-05
1.59912e-05
1.60156e-05
1.60156e-05
1.604e-05
1.604e-05
1.604e-05
1.60645e-05
1.60889e-05
1.60889e-05
1.60889e-05
1.61133e-05
1.61133e-05
1.61377e-05
1.61377e-05
1.61377e-05
1.61621e-05
1.61621e-05
1.61865e-05
1.61865e-05
1.61865e-05
1.62109e-05
1.62109e-05
1.62109e-05
1.62109e-05
1.62109e-05
1.62354e-05
1.62354e-05
1.62354e-05
1.62354e-05
1.62598e-05
1.62598e-05
1.62598e-05
1.62598e-05
1.62598e-05
1.62598e-05
1.62842e-05
1.62842e-05
1.62842e-05
1.63086e-05
1.63086e-05
1.63086e-05
1.63086e-05
1.63086e-05
1.63086e-05
1.63086e-05
1.63086e-05
1.6333e-05
1.6333e-05
1.6333e-05
1.63574e-05
1.63574e-05
1.63574e-05
1.63574e-05
1.63574e-05
1.63818e-05
1.63818e-05
1.63818e-05
1.63818e-05
1.63818e-05
1.63818e-05
1.63818e-05
1.63818e-05
1.63818e-05
1.63818e-05
1.64062e-05
1.64062e-05
1.64062e-05
1.64062e-05
1.64062e-05
1.64062e-05
1.64062e-05
1.64307e-05
1.64307e-05
1.64307e-05
1.64307e-05
1.64307e-05
1.64307e-05
1.64307e-05
1.64307e-05
1.64307e-05
1.64307e-05
1.64551e-05
1.64551e-05
1.64551e-05
1.64551e-05
1.64551e-05
1.64551e-05
1.64551e-05
1.64551e-05
1.64551e-05
1.64795e-05
1.64551e-05
1.64551e-05
1.64795e-05
1.64795e-05
1.64795e-05
1.64795e-05
1.64795e-05
1.64795e-05
1.64795e-05
1.64795e-05
1.64795e-05
1.64795e-05
1.64795e-05
1.64795e-05
1.64795e-05
1.64795e-05
1.64795e-05
1.64795e-05
1.64795e-05
1.64795e-05
1.64795e-05
1.65039e-05
1.65039e-05
1.65039e-05
1.65039e-05
1.65039e-05
1.65039e-05
1.65039e-05
1.65283e-05
1.65283e-05
1.65283e-05
1.65283e-05
1.65527e-05
1.65283e-05
1.65527e-05
1.65527e-05
1.65527e-05
1.65527e-05
1.65527e-05
1.65527e-05
1.65527e-05
1.65527e-05
1.65527e-05
1.65527e-05
1.65527e-05
1.65771e-05
1.65527e-05
1.65771e-05
1.65771e-05
1.65771e-05
1.65771e-05
1.65527e-05
1.65771e-05
1.65771e-05
1.65771e-05
1.65527e-05
1.65527e-05
1.65771e-05
1.65527e-05
1.65527e-05
1.65527e-05
1.65527e-05
1.65527e-05
1.65527e-05
1.65527e-05
1.65527e-05
1.65527e-05
1.65527e-05
1.65527e-05
1.65527e-05
1.65527e-05
1.65527e-05
1.65527e-05
1.65527e-05
1.65527e-05
1.65527e-05
1.65527e-05
1.65283e-05
1.65039e-05
1.65039e-05
1.65039e-05
1.65039e-05
1.65283e-05
