2.0874e-05
2.08984e-05
2.08496e-05
2.08984e-05
2.08496e-05
2.0874e-05
2.08496e-05
2.08984e-05
2.08496e-05
2.0874e-05
2.08008e-05
2.08496e-05
2.08008e-05
2.08496e-05
2.08008e-05
2.08496e-05
2.08008e-05
2.08252e-05
2.07764e-05
2.08252e-05
2.07764e-05
2.08008e-05
2.07764e-05
2.08008e-05
2.0752e-05
2.07764e-05
2.0752e-05
2.07764e-05
2.07275e-05
2.0752e-05
2.07275e-05
2.07764e-05
2.07031e-05
2.0752e-05
2.07031e-05
2.07275e-05
2.06787e-05
2.07275e-05
2.06787e-05
2.07275e-05
2.06787e-05
2.07031e-05
2.06787e-05
2.07031e-05
2.06543e-05
2.06787e-05
2.06543e-05
2.07031e-05
2.06543e-05
2.06787e-05
2.06299e-05
2.06787e-05
2.06299e-05
2.06543e-05
2.06055e-05
2.06787e-05
2.06055e-05
2.06543e-05
2.06055e-05
2.06299e-05
2.06055e-05
2.06055e-05
2.06055e-05
2.06055e-05
2.06055e-05
2.05811e-05
2.06055e-05
2.05566e-05
2.06055e-05
2.05566e-05
2.06055e-05
2.05322e-05
2.06055e-05
2.05566e-05
2.05811e-05
2.05322e-05
2.06055e-05
2.05078e-05
2.05811e-05
2.05078e-05
2.05811e-05
2.05078e-05
2.05566e-05
2.05078e-05
2.05811e-05
2.04834e-05
2.05566e-05
2.04834e-05
2.05811e-05
2.04834e-05
2.05566e-05
2.04834e-05
2.05566e-05
2.04834e-05
2.05322e-05
2.04834e-05
2.05322e-05
2.04834e-05
2.05078e-05
2.0459e-05
2.04834e-05
2.0459e-05
2.04346e-05
2.04834e-05
2.04346e-05
2.0459e-05
2.04102e-05
2.04346e-05
2.03857e-05
2.04102e-05
2.03857e-05
2.04102e-05
2.03857e-05
2.03857e-05
2.03369e-05
2.03857e-05
2.03613e-05
2.03613e-05
2.03369e-05
2.03613e-05
2.03369e-05
2.03613e-05
2.03125e-05
2.03369e-05
2.03125e-05
2.03369e-05
2.02881e-05
2.03125e-05
2.02881e-05
2.03125e-05
2.02881e-05
2.03125e-05
2.02881e-05
2.03125e-05
2.02637e-05
2.02881e-05
2.02637e-05
2.02881e-05
2.02637e-05
2.02881e-05
2.02393e-05
2.02637e-05
2.02393e-05
2.02637e-05
2.02393e-05
2.02393e-05
2.02148e-05
2.02393e-05
2.02148e-05
2.02148e-05
2.01904e-05
2.01904e-05
2.0166e-05
2.0166e-05
2.01416e-05
2.01416e-05
2.01172e-05
2.01172e-05
2.00928e-05
2.00928e-05
2.00684e-05
2.00684e-05
2.00195e-05
2.00439e-05
2.00195e-05
2.00195e-05
1.99951e-05
1.99951e-05
1.99707e-05
1.99951e-05
1.99463e-05
1.99951e-05
1.99463e-05
1.99707e-05
1.99463e-05
1.99951e-05
1.99707e-05
1.99951e-05
1.99707e-05
1.99951e-05
1.99951e-05
2.00195e-05
1.99951e-05
2.00439e-05
2.00195e-05
2.00439e-05
2.00195e-05
2.00684e-05
2.00439e-05
2.00684e-05
2.00195e-05
2.00684e-05
2.00439e-05
2.00684e-05
2.00195e-05
2.00684e-05
2.00439e-05
2.00928e-05
2.00439e-05
2.00684e-05
2.00439e-05
2.00684e-05
2.00195e-05
2.00684e-05
2.00439e-05
2.00684e-05
2.00195e-05
2.00684e-05
2.00195e-05
2.00684e-05
2.00439e-05
2.00684e-05
2.00195e-05
2.00684e-05
2.00195e-05
2.00684e-05
2.00195e-05
2.00684e-05
2.00195e-05
2.00684e-05
2.00195e-05
2.00928e-05
2.00195e-05
2.00684e-05
2.00195e-05
2.00928e-05
2.00439e-05
2.00684e-05
2.00439e-05
2.00928e-05
2.00439e-05
2.00684e-05
2.00439e-05
2.00928e-05
2.00684e-05
2.00928e-05
2.00684e-05
2.01172e-05
2.00684e-05
2.01172e-05
2.00684e-05
2.01172e-05
2.00928e-05
2.01172e-05
2.00928e-05
2.01416e-05
2.00928e-05
2.01172e-05
2.01172e-05
2.01416e-05
2.01172e-05
2.01416e-05
2.01172e-05
2.0166e-05
2.01172e-05
2.0166e-05
2.01416e-05
2.01904e-05
2.01416e-05
2.01904e-05
2.0166e-05
2.02148e-05
2.0166e-05
2.02148e-05
2.01904e-05
2.02393e-05
2.01904e-05
2.02148e-05
2.02148e-05
2.02637e-05
2.02148e-05
2.02393e-05
2.02148e-05
2.02637e-05
2.02148e-05
2.02637e-05
2.02393e-05
2.02881e-05
2.02393e-05
2.02881e-05
2.02637e-05
2.02881e-05
2.02637e-05
2.02881e-05
2.02881e-05
2.03125e-05
2.02881e-05
2.03125e-05
2.02881e-05
2.03369e-05
2.03125e-05
2.03369e-05
2.03125e-05
2.03613e-05
2.03369e-05
2.03613e-05
2.03369e-05
2.03613e-05
2.03369e-05
2.03613e-05
2.03369e-05
2.03857e-05
2.03369e-05
2.03857e-05
2.03369e-05
2.03857e-05
2.03369e-05
2.03857e-05
2.03369e-05
2.03857e-05
2.03613e-05
2.03857e-05
2.03369e-05
2.03857e-05
2.03613e-05
2.03613e-05
2.03369e-05
2.03613e-05
2.03613e-05
2.03613e-05
2.03369e-05
2.03613e-05
2.03369e-05
2.03613e-05
2.03369e-05
2.03613e-05
2.03369e-05
2.03369e-05
2.03125e-05
2.03369e-05
2.03369e-05
2.03369e-05
2.03125e-05
2.03369e-05
2.03125e-05
2.03369e-05
2.03125e-05
2.03369e-05
2.02881e-05
2.03125e-05
2.02881e-05
2.03125e-05
2.03125e-05
2.03125e-05
2.02881e-05
2.03369e-05
2.02881e-05
2.03125e-05
2.02881e-05
2.03369e-05
2.02881e-05
2.03125e-05
2.03125e-05
2.03369e-05
2.03125e-05
2.03369e-05
2.03125e-05
2.03613e-05
2.03125e-05
2.03369e-05
2.03125e-05
2.03613e-05
2.03125e-05
2.03369e-05
2.03125e-05
2.03369e-05
2.03125e-05
2.03369e-05
2.03125e-05
2.03369e-05
2.02881e-05
2.03125e-05
2.02881e-05
2.03369e-05
2.02881e-05
2.03125e-05
2.02881e-05
2.03369e-05
2.02881e-05
2.03125e-05
2.02881e-05
2.03125e-05
2.02881e-05
2.03125e-05
2.02881e-05
2.03125e-05
2.02881e-05
2.02881e-05
2.02881e-05
2.03125e-05
2.02637e-05
2.02881e-05
2.02637e-05
2.03125e-05
2.02637e-05
2.02881e-05
2.02637e-05
2.02881e-05
2.02637e-05
2.02881e-05
2.02637e-05
2.02881e-05
2.02637e-05
2.02637e-05
2.02393e-05
2.02881e-05
2.02393e-05
2.02637e-05
2.02393e-05
2.02637e-05
2.02393e-05
2.02393e-05
2.02148e-05
2.02637e-05
2.02148e-05
2.02393e-05
2.02148e-05
2.02637e-05
2.02148e-05
2.02148e-05
2.01904e-05
2.02393e-05
2.01904e-05
2.02148e-05
2.01904e-05
2.02148e-05
2.0166e-05
2.02148e-05
2.0166e-05
2.02148e-05
2.0166e-05
2.01904e-05
2.0166e-05
2.01904e-05
2.0166e-05
2.0166e-05
2.01416e-05
2.01904e-05
2.01416e-05
2.0166e-05
2.01416e-05
2.0166e-05
2.01172e-05
2.01416e-05
2.01416e-05
2.0166e-05
2.01172e-05
2.01416e-05
2.01172e-05
2.01416e-05
2.01172e-05
2.01172e-05
2.00928e-05
2.01416e-05
2.00928e-05
2.01172e-05
2.00928e-05
2.01172e-05
2.00928e-05
2.01172e-05
2.00684e-05
2.01172e-05
2.00928e-05
2.00928e-05
2.00684e-05
2.01172e-05
2.00684e-05
2.00684e-05
2.00439e-05
2.00684e-05
2.00439e-05
2.00684e-05
2.00439e-05
2.00684e-05
2.00195e-05
2.00684e-05
2.00195e-05
2.00684e-05
2.00195e-05
2.00439e-05
1.99951e-05
2.00439e-05
1.99951e-05
2.00195e-05
1.99951e-05
2.00439e-05
1.99951e-05
2.00195e-05
1.99707e-05
2.00195e-05
1.99707e-05
1.99951e-05
1.99707e-05
1.99951e-05
1.99463e-05
1.99951e-05
1.99463e-05
1.99951e-05
1.99463e-05
1.99707e-05
1.99219e-05
1.99707e-05
1.99219e-05
1.99463e-05
1.99219e-05
1.99707e-05
1.99219e-05
1.99463e-05
1.99219e-05
1.99463e-05
1.98975e-05
1.99219e-05
1.98975e-05
1.99463e-05
1.98975e-05
1.99219e-05
1.98975e-05
1.99219e-05
1.98975e-05
1.98975e-05
1.98975e-05
1.99219e-05
1.98975e-05
1.98975e-05
1.9873e-05
1.99219e-05
1.9873e-05
1.98975e-05
1.9873e-05
1.98975e-05
1.9873e-05
1.98975e-05
1.9873e-05
1.99219e-05
1.98486e-05
1.98975e-05
1.9873e-05
1.98975e-05
1.9873e-05
1.98975e-05
1.9873e-05
1.98975e-05
1.98486e-05
1.98975e-05
1.98486e-05
1.98975e-05
1.9873e-05
1.98975e-05
1.98486e-05
1.98975e-05
1.9873e-05
1.98975e-05
1.9873e-05
1.98975e-05
1.9873e-05
1.98975e-05
1.9873e-05
1.99219e-05
1.9873e-05
1.98975e-05
1.9873e-05
1.99219e-05
1.9873e-05
1.98975e-05
1.9873e-05
1.99219e-05
1.9873e-05
1.98975e-05
1.9873e-05
1.99219e-05
1.9873e-05
1.98975e-05
1.9873e-05
1.99219e-05
1.9873e-05
1.98975e-05
1.98975e-05
1.99219e-05
1.9873e-05
1.99219e-05
1.9873e-05
1.99219e-05
1.98975e-05
1.99219e-05
1.98975e-05
1.99219e-05
1.98975e-05
1.99219e-05
1.98975e-05
1.99219e-05
1.98975e-05
1.99219e-05
1.98975e-05
1.99219e-05
1.98975e-05
1.99219e-05
1.98975e-05
1.99219e-05
1.98975e-05
1.99219e-05
1.98975e-05
1.99219e-05
1.9873e-05
1.98975e-05
1.98975e-05
1.99219e-05
1.98975e-05
1.98975e-05
1.98975e-05
1.99219e-05
1.9873e-05
1.98975e-05
1.9873e-05
1.99219e-05
1.9873e-05
1.98975e-05
1.9873e-05
1.98975e-05
1.9873e-05
1.98975e-05
1.9873e-05
1.9873e-05
1.9873e-05
1.9873e-05
1.98486e-05
1.9873e-05
1.9873e-05
1.9873e-05
1.98486e-05
1.9873e-05
1.9873e-05
1.9873e-05
1.98242e-05
1.9873e-05
1.98486e-05
1.98486e-05
1.98242e-05
1.98486e-05
1.98486e-05
1.98486e-05
1.98242e-05
1.98486e-05
1.98242e-05
1.98242e-05
1.98242e-05
1.98242e-05
1.98242e-05
1.98486e-05
1.97998e-05
1.98242e-05
1.98242e-05
1.97998e-05
1.97998e-05
1.97998e-05
1.97998e-05
1.97998e-05
1.97754e-05
1.97998e-05
1.97754e-05
1.97998e-05
1.9751e-05
1.97754e-05
1.97754e-05
1.97754e-05
1.9751e-05
1.97754e-05
1.9751e-05
1.97754e-05
1.97266e-05
1.9751e-05
1.9751e-05
1.9751e-05
1.97266e-05
1.9751e-05
1.97266e-05
1.9751e-05
1.97266e-05
1.97266e-05
1.97021e-05
1.9751e-05
1.97021e-05
1.9751e-05
1.97266e-05
1.9751e-05
1.97021e-05
1.9751e-05
1.97266e-05
1.97266e-05
1.97021e-05
1.9751e-05
1.97266e-05
1.9751e-05
1.97266e-05
1.9751e-05
1.9751e-05
1.97754e-05
1.9751e-05
1.97998e-05
1.97754e-05
1.97998e-05
1.97754e-05
1.97998e-05
1.97998e-05
1.98242e-05
1.97998e-05
1.98242e-05
1.98242e-05
1.9873e-05
1.98486e-05
1.98975e-05
1.9873e-05
1.99219e-05
1.98975e-05
1.99219e-05
1.99219e-05
1.99463e-05
1.99463e-05
1.99707e-05
1.99707e-05
1.99951e-05
1.99951e-05
2.00439e-05
2.00195e-05
2.00684e-05
2.00439e-05
2.01172e-05
2.00684e-05
2.01172e-05
2.00928e-05
2.0166e-05
2.01172e-05
2.0166e-05
2.0166e-05
2.02148e-05
2.01904e-05
2.02393e-05
2.02148e-05
2.02637e-05
2.02637e-05
2.02881e-05
2.02637e-05
2.03125e-05
2.02881e-05
2.03125e-05
2.03125e-05
2.03613e-05
2.03613e-05
2.03857e-05
2.03613e-05
2.04102e-05
2.03857e-05
2.04102e-05
2.03857e-05
2.0459e-05
2.04102e-05
2.0459e-05
2.04346e-05
2.04834e-05
2.04834e-05
2.04834e-05
2.0459e-05
2.05322e-05
2.04834e-05
2.05078e-05
2.05078e-05
2.05322e-05
2.05078e-05
2.05322e-05
2.05322e-05
2.05811e-05
2.05322e-05
2.05811e-05
2.05566e-05
2.06055e-05
2.05811e-05
2.06055e-05
2.05811e-05
2.06299e-05
2.05811e-05
2.06299e-05
2.06055e-05
2.06543e-05
2.06055e-05
2.06543e-05
2.06055e-05
2.06543e-05
2.06299e-05
2.06543e-05
2.06299e-05
2.06787e-05
2.06299e-05
2.06543e-05
2.06543e-05
2.06787e-05
2.06299e-05
2.06543e-05
2.06543e-05
2.06787e-05
2.06543e-05
2.06543e-05
2.06299e-05
2.06787e-05
2.06299e-05
2.06543e-05
2.06299e-05
2.06787e-05
2.06299e-05
2.06543e-05
2.06299e-05
2.06787e-05
2.06299e-05
2.06543e-05
2.06055e-05
2.06543e-05
2.06055e-05
2.06299e-05
2.06055e-05
2.06543e-05
2.05811e-05
2.06299e-05
2.06055e-05
2.06299e-05
2.05811e-05
2.06055e-05
2.05811e-05
2.06055e-05
2.05566e-05
2.05811e-05
2.05566e-05
2.06055e-05
2.05322e-05
2.05566e-05
2.05322e-05
2.05566e-05
2.05078e-05
2.05322e-05
2.05078e-05
2.05566e-05
2.04834e-05
2.05078e-05
2.04834e-05
2.05078e-05
2.0459e-05
2.04834e-05
2.04346e-05
2.04834e-05
2.04346e-05
2.0459e-05
2.04102e-05
2.0459e-05
2.04102e-05
2.04102e-05
2.03857e-05
2.04346e-05
2.03857e-05
2.03857e-05
2.03613e-05
2.04102e-05
2.03857e-05
2.03613e-05
2.03369e-05
2.03857e-05
2.03125e-05
2.03369e-05
2.03125e-05
2.03369e-05
2.02881e-05
2.03125e-05
2.02881e-05
2.02881e-05
2.02637e-05
2.02881e-05
2.02637e-05
2.02881e-05
2.02393e-05
2.02637e-05
2.02393e-05
2.02637e-05
2.02148e-05
2.02393e-05
2.02148e-05
2.02393e-05
2.01904e-05
2.02148e-05
2.0166e-05
2.02148e-05
2.0166e-05
2.01904e-05
2.01416e-05
2.01904e-05
2.01172e-05
2.01416e-05
2.01172e-05
2.0166e-05
2.01172e-05
2.01172e-05
2.00928e-05
2.01416e-05
2.00684e-05
2.01172e-05
2.00684e-05
2.01172e-05
2.00439e-05
2.00928e-05
2.00439e-05
2.00684e-05
2.00195e-05
2.00684e-05
2.00195e-05
2.00684e-05
1.99951e-05
2.00439e-05
1.99951e-05
2.00439e-05
1.99951e-05
2.00195e-05
1.99951e-05
2.00195e-05
1.99951e-05
1.99951e-05
1.99707e-05
1.99951e-05
1.99463e-05
1.99951e-05
1.99463e-05
1.99463e-05
1.99219e-05
1.99707e-05
1.99219e-05
1.99463e-05
1.99219e-05
1.99463e-05
1.99219e-05
1.99219e-05
1.99219e-05
1.99463e-05
1.98975e-05
1.99219e-05
1.98975e-05
1.99463e-05
1.98975e-05
1.99219e-05
1.9873e-05
1.99219e-05
1.9873e-05
1.98975e-05
1.9873e-05
1.99219e-05
1.9873e-05
1.98975e-05
1.9873e-05
1.99219e-05
1.98975e-05
1.98975e-05
1.9873e-05
1.98975e-05
1.9873e-05
1.98975e-05
1.9873e-05
1.98975e-05
1.9873e-05
1.98975e-05
1.9873e-05
1.99219e-05
1.9873e-05
1.98975e-05
1.9873e-05
1.99219e-05
1.9873e-05
1.98975e-05
1.9873e-05
1.99219e-05
1.98975e-05
1.98975e-05
1.9873e-05
1.98975e-05
1.9873e-05
1.99219e-05
1.9873e-05
1.98975e-05
1.9873e-05
1.99219e-05
1.98975e-05
1.98975e-05
1.98975e-05
1.99219e-05
1.98975e-05
1.99219e-05
1.98975e-05
1.99463e-05
1.98975e-05
1.99219e-05
1.98975e-05
1.99463e-05
1.98975e-05
1.99219e-05
1.98975e-05
1.99463e-05
1.98975e-05
1.99463e-05
1.98975e-05
1.99463e-05
1.99219e-05
1.99463e-05
1.99219e-05
1.99707e-05
1.99219e-05
1.99463e-05
1.99219e-05
1.99707e-05
1.99219e-05
1.99463e-05
1.99219e-05
1.99707e-05
1.99219e-05
1.99463e-05
1.99219e-05
1.99951e-05
1.99219e-05
1.99707e-05
1.99463e-05
1.99707e-05
1.99219e-05
1.99707e-05
1.99219e-05
1.99951e-05
1.99463e-05
1.99707e-05
1.99463e-05
1.99951e-05
1.99463e-05
1.99707e-05
1.99463e-05
1.99951e-05
1.99463e-05
1.99707e-05
1.99463e-05
2.00195e-05
1.99463e-05
1.99951e-05
1.99707e-05
2.00195e-05
1.99951e-05
1.99951e-05
1.99707e-05
2.00439e-05
1.99951e-05
2.00195e-05
1.99951e-05
2.00439e-05
1.99951e-05
2.00439e-05
1.99951e-05
2.00439e-05
2.00195e-05
2.00439e-05
2.00195e-05
2.00684e-05
2.00439e-05
2.00684e-05
2.00439e-05
2.00928e-05
2.00684e-05
2.00928e-05
2.00684e-05
2.01172e-05
2.00928e-05
2.01172e-05
2.01172e-05
2.01416e-05
2.01172e-05
2.01416e-05
2.01172e-05
2.01904e-05
2.01416e-05
2.01904e-05
2.0166e-05
2.02148e-05
2.0166e-05
2.02148e-05
2.01904e-05
2.02637e-05
2.02148e-05
2.02393e-05
2.02148e-05
2.02881e-05
2.02393e-05
2.02881e-05
2.02637e-05
2.03125e-05
2.02637e-05
2.03125e-05
2.02881e-05
2.03369e-05
2.02881e-05
2.03369e-05
2.03125e-05
2.03857e-05
2.03369e-05
2.03613e-05
2.03369e-05
2.04102e-05
2.03857e-05
2.03857e-05
2.03613e-05
2.04346e-05
2.03857e-05
2.04102e-05
2.03857e-05
2.0459e-05
2.04102e-05
2.0459e-05
2.04346e-05
2.04834e-05
2.04346e-05
2.04834e-05
2.04346e-05
2.05078e-05
2.0459e-05
2.04834e-05
2.0459e-05
2.05322e-05
2.0459e-05
2.05078e-05
2.04834e-05
2.05322e-05
2.04834e-05
2.05078e-05
2.04834e-05
2.05566e-05
2.04834e-05
2.05322e-05
2.05078e-05
2.05566e-05
2.05078e-05
2.05322e-05
2.05078e-05
2.05811e-05
2.05078e-05
2.05566e-05
2.05078e-05
2.05811e-05
2.05078e-05
2.05566e-05
2.05078e-05
2.05811e-05
2.05078e-05
2.05566e-05
2.05078e-05
2.05811e-05
2.05078e-05
2.05322e-05
2.05078e-05
2.05566e-05
2.05078e-05
2.05322e-05
2.05078e-05
2.05566e-05
2.04834e-05
2.05322e-05
2.04834e-05
2.05322e-05
2.05078e-05
2.05078e-05
2.04834e-05
2.05322e-05
2.04834e-05
2.05078e-05
2.04834e-05
2.05078e-05
2.0459e-05
2.04834e-05
2.0459e-05
2.05078e-05
2.04346e-05
2.04834e-05
2.04346e-05
2.04834e-05
2.04346e-05
2.0459e-05
2.04346e-05
2.0459e-05
2.04102e-05
2.04346e-05
2.04102e-05
2.0459e-05
2.03857e-05
2.04346e-05
2.03857e-05
2.04346e-05
2.03857e-05
2.04102e-05
2.03613e-05
2.04102e-05
2.03369e-05
2.03857e-05
2.03369e-05
2.03857e-05
2.03125e-05
2.03613e-05
2.03125e-05
2.03613e-05
2.03125e-05
2.03369e-05
2.02881e-05
2.03369e-05
2.02637e-05
2.03125e-05
2.02881e-05
2.03125e-05
2.02637e-05
2.02881e-05
2.02637e-05
2.02881e-05
2.02393e-05
2.02637e-05
2.02393e-05
2.02881e-05
2.02148e-05
2.02637e-05
2.02148e-05
2.02637e-05
2.02148e-05
2.02393e-05
2.01904e-05
2.02148e-05
2.02148e-05
2.02148e-05
2.01904e-05
2.02148e-05
2.01904e-05
2.01904e-05
2.0166e-05
2.02148e-05
2.01416e-05
2.01904e-05
2.01416e-05
2.01904e-05
2.01172e-05
2.0166e-05
2.01172e-05
2.0166e-05
2.01172e-05
2.01416e-05
2.00928e-05
2.01416e-05
2.00928e-05
2.01172e-05
2.00928e-05
2.01416e-05
2.00684e-05
2.01172e-05
2.00684e-05
2.01172e-05
2.00684e-05
2.00928e-05
2.00684e-05
2.01172e-05
2.00439e-05
2.00928e-05
2.00439e-05
2.00928e-05
2.00195e-05
2.00684e-05
2.00195e-05
2.00684e-05
2.00195e-05
2.00684e-05
2.00195e-05
2.00439e-05
1.99951e-05
2.00439e-05
1.99951e-05
2.00684e-05
1.99951e-05
2.00439e-05
1.99951e-05
2.00439e-05
1.99951e-05
2.00195e-05
1.99951e-05
2.00439e-05
1.99707e-05
2.00195e-05
1.99707e-05
2.00195e-05
1.99707e-05
2.00195e-05
1.99707e-05
2.00195e-05
1.99707e-05
1.99951e-05
1.99707e-05
2.00195e-05
1.99707e-05
1.99951e-05
1.99463e-05
2.00195e-05
1.99463e-05
1.99951e-05
1.99463e-05
2.00195e-05
1.99463e-05
1.99951e-05
1.99463e-05
2.00195e-05
1.99707e-05
1.99951e-05
1.99463e-05
2.00195e-05
1.99707e-05
2.00195e-05
1.99707e-05
2.00195e-05
1.99707e-05
2.00195e-05
1.99707e-05
2.00439e-05
1.99707e-05
2.00195e-05
1.99707e-05
2.00439e-05
1.99707e-05
2.00195e-05
1.99707e-05
2.00439e-05
1.99707e-05
2.00195e-05
1.99707e-05
2.00439e-05
1.99707e-05
2.00195e-05
1.99951e-05
2.00439e-05
1.99707e-05
2.00195e-05
1.99951e-05
2.00439e-05
1.99951e-05
2.00439e-05
1.99951e-05
2.00684e-05
1.99951e-05
2.00439e-05
1.99951e-05
2.00684e-05
1.99951e-05
2.00439e-05
1.99951e-05
2.00684e-05
1.99951e-05
2.00684e-05
1.99951e-05
2.00684e-05
2.00195e-05
2.00684e-05
2.00195e-05
2.00928e-05
2.00195e-05
2.00684e-05
2.00439e-05
2.01172e-05
2.00439e-05
2.00928e-05
2.00439e-05
2.01172e-05
2.00684e-05
2.01172e-05
2.00684e-05
2.01416e-05
2.00928e-05
2.01416e-05
2.00928e-05
2.0166e-05
2.01172e-05
2.0166e-05
2.01172e-05
2.01904e-05
2.01172e-05
2.01904e-05
2.01416e-05
2.02148e-05
2.01416e-05
2.02148e-05
2.0166e-05
2.02393e-05
2.01904e-05
2.02393e-05
2.02148e-05
2.02637e-05
2.02148e-05
2.02881e-05
2.02148e-05
2.02881e-05
2.02393e-05
2.02881e-05
2.02393e-05
2.03125e-05
2.02637e-05
2.03125e-05
2.02637e-05
2.03613e-05
2.02881e-05
2.03369e-05
2.02881e-05
2.03613e-05
2.02881e-05
2.03613e-05
2.03125e-05
2.03857e-05
2.03125e-05
2.03857e-05
2.03369e-05
2.04102e-05
2.03369e-05
2.03857e-05
2.03613e-05
2.04346e-05
2.03613e-05
2.04102e-05
2.03613e-05
2.04346e-05
2.03857e-05
2.04346e-05
2.03857e-05
2.0459e-05
2.03857e-05
2.0459e-05
2.03857e-05
2.04834e-05
2.03857e-05
2.04834e-05
2.04102e-05
2.05078e-05
2.04346e-05
2.04834e-05
2.0459e-05
2.05322e-05
2.0459e-05
2.05078e-05
2.04834e-05
2.05322e-05
2.04834e-05
2.05322e-05
2.04834e-05
2.05811e-05
2.05078e-05
2.05566e-05
2.05078e-05
2.06055e-05
2.05322e-05
2.05811e-05
2.05322e-05
2.06055e-05
2.05566e-05
2.06055e-05
2.05811e-05
2.06299e-05
2.05811e-05
2.06543e-05
2.06055e-05
2.06787e-05
2.06055e-05
2.06787e-05
2.06299e-05
2.07031e-05
2.06543e-05
2.07031e-05
2.06787e-05
2.0752e-05
2.06787e-05
2.0752e-05
2.07275e-05
2.08008e-05
2.0752e-05
2.08008e-05
2.07764e-05
2.08496e-05
2.08008e-05
2.08496e-05
2.08252e-05
2.08984e-05
2.0874e-05
2.09229e-05
2.08984e-05
2.09717e-05
2.08984e-05
2.09717e-05
2.09473e-05
2.10205e-05
2.09717e-05
2.10449e-05
2.09961e-05
2.10937e-05
2.10205e-05
2.10937e-05
2.10449e-05
2.11182e-05
2.10937e-05
2.11426e-05
2.10937e-05
2.11914e-05
2.11182e-05
2.11914e-05
2.1167e-05
2.12402e-05
2.11914e-05
2.12646e-05
2.12158e-05
2.12891e-05
2.12402e-05
2.12891e-05
2.12646e-05
2.13379e-05
2.12891e-05
2.13379e-05
2.13135e-05
2.13867e-05
2.13379e-05
2.13867e-05
2.13623e-05
2.14355e-05
2.13867e-05
2.14355e-05
2.13867e-05
2.14844e-05
2.14111e-05
2.14844e-05
2.14355e-05
2.15088e-05
2.146e-05
2.15088e-05
2.146e-05
2.15332e-05
2.14844e-05
2.15332e-05
2.15088e-05
2.1582e-05
2.15088e-05
2.15576e-05
2.15088e-05
2.1582e-05
2.15332e-05
2.1582e-05
2.15576e-05
2.16064e-05
2.15576e-05
2.1582e-05
2.15576e-05
2.16309e-05
2.15576e-05
2.16064e-05
2.1582e-05
2.16309e-05
2.1582e-05
2.16309e-05
2.1582e-05
2.16553e-05
2.1582e-05
2.16309e-05
2.1582e-05
2.16553e-05
2.1582e-05
2.16309e-05
2.1582e-05
2.16553e-05
2.1582e-05
2.16309e-05
2.1582e-05
2.16553e-05
2.1582e-05
2.16309e-05
2.1582e-05
2.16553e-05
2.1582e-05
2.16309e-05
2.1582e-05
2.16553e-05
2.1582e-05
2.16309e-05
2.1582e-05
2.16553e-05
2.1582e-05
2.16309e-05
2.1582e-05
2.16553e-05
2.1582e-05
2.16309e-05
2.16064e-05
2.16553e-05
2.16064e-05
2.16553e-05
2.16064e-05
2.16797e-05
2.16553e-05
2.16797e-05
2.16309e-05
2.17041e-05
2.16309e-05
2.16797e-05
2.16553e-05
2.17285e-05
2.16797e-05
2.17041e-05
2.16797e-05
2.17529e-05
2.17041e-05
2.17529e-05
2.17285e-05
2.17773e-05
2.17529e-05
2.18018e-05
2.17773e-05
2.18262e-05
2.17773e-05
2.18262e-05
2.18018e-05
2.18506e-05
2.18018e-05
2.18506e-05
2.18506e-05
2.18994e-05
2.18506e-05
2.18994e-05
2.1875e-05
2.19482e-05
2.18994e-05
2.19482e-05
2.19482e-05
2.19971e-05
2.19482e-05
2.19971e-05
2.19727e-05
2.20215e-05
2.19971e-05
2.20459e-05
2.20215e-05
2.20703e-05
2.20459e-05
2.20947e-05
2.20947e-05
2.21436e-05
2.21191e-05
2.21436e-05
2.21191e-05
2.21924e-05
2.2168e-05
2.21924e-05
2.21924e-05
2.22412e-05
2.22168e-05
2.22412e-05
2.22412e-05
2.229e-05
2.22656e-05
2.23145e-05
2.229e-05
2.23633e-05
2.23145e-05
2.23633e-05
2.23389e-05
2.23877e-05
2.23633e-05
2.24121e-05
2.23877e-05
2.24609e-05
2.24121e-05
2.24365e-05
2.24121e-05
2.24609e-05
2.24365e-05
2.24854e-05
2.24609e-05
2.25098e-05
2.24609e-05
2.25098e-05
2.24854e-05
2.25586e-05
2.25098e-05
2.25586e-05
2.25342e-05
2.2583e-05
2.25342e-05
2.2583e-05
2.25586e-05
2.26318e-05
2.2583e-05
2.26318e-05
2.26074e-05
2.26562e-05
2.26074e-05
2.26562e-05
2.26318e-05
2.27051e-05
2.26318e-05
2.26807e-05
2.26562e-05
2.27051e-05
2.26562e-05
2.27051e-05
2.26562e-05
2.27295e-05
2.26562e-05
2.27051e-05
2.26807e-05
2.27295e-05
2.26562e-05
2.27051e-05
2.26807e-05
2.27295e-05
2.26807e-05
2.27295e-05
2.26807e-05
2.27539e-05
2.27051e-05
2.27295e-05
2.26807e-05
2.27539e-05
2.26807e-05
2.27295e-05
2.26807e-05
2.27539e-05
2.26807e-05
2.27295e-05
2.26807e-05
2.27295e-05
2.26807e-05
2.27051e-05
2.26562e-05
2.27295e-05
2.26562e-05
2.26807e-05
2.26562e-05
2.27051e-05
2.26318e-05
2.26807e-05
2.26318e-05
2.26807e-05
2.26318e-05
2.26562e-05
2.26318e-05
2.26807e-05
2.26318e-05
2.26562e-05
2.26318e-05
2.26807e-05
2.26318e-05
2.26318e-05
2.26074e-05
2.26562e-05
2.2583e-05
2.26318e-05
2.2583e-05
2.26318e-05
2.25586e-05
2.26074e-05
2.25586e-05
2.26074e-05
2.25586e-05
2.2583e-05
2.25342e-05
2.2583e-05
2.25098e-05
2.25586e-05
2.24854e-05
2.25586e-05
2.24609e-05
2.25098e-05
2.24609e-05
2.25098e-05
2.24365e-05
2.24854e-05
2.24121e-05
2.24609e-05
2.24121e-05
2.24365e-05
2.23877e-05
2.24609e-05
2.23633e-05
2.24365e-05
2.23633e-05
2.24121e-05
2.23389e-05
2.23877e-05
2.23389e-05
2.23877e-05
2.229e-05
2.23389e-05
2.229e-05
2.23389e-05
2.22412e-05
2.229e-05
2.22412e-05
2.229e-05
2.22168e-05
2.22412e-05
2.2168e-05
2.22412e-05
2.21436e-05
2.21924e-05
2.21191e-05
2.2168e-05
2.20947e-05
2.21436e-05
2.20703e-05
2.21436e-05
2.20459e-05
2.20947e-05
2.20459e-05
2.20947e-05
2.20215e-05
2.20459e-05
2.19971e-05
2.20459e-05
2.19727e-05
2.20215e-05
2.19482e-05
2.20215e-05
2.19482e-05
2.19727e-05
2.19238e-05
2.19727e-05
2.18994e-05
2.19482e-05
2.18994e-05
2.19482e-05
2.1875e-05
2.19238e-05
2.18506e-05
2.19238e-05
2.18506e-05
2.18994e-05
2.18262e-05
2.18994e-05
2.18506e-05
2.1875e-05
2.18018e-05
2.1875e-05
2.18262e-05
2.1875e-05
2.18262e-05
2.1875e-05
2.18018e-05
2.1875e-05
2.18262e-05
2.1875e-05
2.18018e-05
2.1875e-05
2.18262e-05
2.18994e-05
2.18262e-05
2.1875e-05
2.18262e-05
2.18994e-05
2.18262e-05
2.18994e-05
2.18506e-05
2.19238e-05
2.1875e-05
2.19238e-05
2.1875e-05
2.19482e-05
2.18994e-05
2.19482e-05
2.18994e-05
2.19727e-05
2.19238e-05
2.19727e-05
2.19482e-05
2.20215e-05
2.19727e-05
2.20215e-05
2.19727e-05
2.20459e-05
2.19971e-05
2.20459e-05
2.19971e-05
2.20947e-05
2.20215e-05
2.20947e-05
2.20459e-05
2.21191e-05
2.20703e-05
2.21436e-05
2.20947e-05
2.21924e-05
2.21191e-05
2.21924e-05
2.21436e-05
2.22168e-05
2.2168e-05
2.22412e-05
2.2168e-05
2.22656e-05
2.21924e-05
2.22656e-05
2.22168e-05
2.229e-05
2.22412e-05
2.23145e-05
2.22656e-05
2.23389e-05
2.229e-05
2.23633e-05
2.23145e-05
2.24121e-05
2.23389e-05
2.24121e-05
2.23633e-05
2.24365e-05
2.23633e-05
2.24365e-05
2.23877e-05
2.24609e-05
2.24121e-05
2.24609e-05
2.24121e-05
2.24854e-05
2.24365e-05
2.24854e-05
2.24365e-05
2.25098e-05
2.24609e-05
2.25098e-05
2.24609e-05
2.25342e-05
2.24609e-05
2.25098e-05
2.24609e-05
2.25342e-05
2.24609e-05
2.25342e-05
2.24609e-05
2.25342e-05
2.24609e-05
2.25342e-05
2.24854e-05
2.25586e-05
2.24854e-05
2.25342e-05
2.24854e-05
2.25342e-05
2.24609e-05
2.25342e-05
2.24609e-05
2.25586e-05
2.24854e-05
2.25342e-05
2.24854e-05
2.25342e-05
2.24609e-05
2.25098e-05
2.24609e-05
2.25342e-05
2.24609e-05
2.25098e-05
2.24609e-05
2.25098e-05
2.24609e-05
2.24854e-05
2.24609e-05
2.25098e-05
2.24365e-05
2.24854e-05
2.24365e-05
2.24854e-05
2.24121e-05
2.24609e-05
2.24121e-05
2.24609e-05
2.24121e-05
2.24365e-05
2.23877e-05
2.24609e-05
2.23877e-05
2.24121e-05
2.23633e-05
2.24121e-05
2.23633e-05
2.23877e-05
2.23389e-05
2.23877e-05
2.23389e-05
2.23633e-05
2.229e-05
2.23633e-05
2.229e-05
2.23389e-05
2.22656e-05
2.23389e-05
2.22656e-05
2.229e-05
2.22412e-05
2.229e-05
2.22168e-05
2.22656e-05
2.22168e-05
2.22656e-05
2.21924e-05
2.22168e-05
2.2168e-05
2.22168e-05
2.2168e-05
2.2168e-05
2.21436e-05
2.2168e-05
2.20947e-05
2.21436e-05
2.20947e-05
2.21436e-05
2.20459e-05
2.20947e-05
2.20459e-05
2.20947e-05
2.20215e-05
2.20459e-05
2.19971e-05
2.20459e-05
2.19971e-05
2.19971e-05
2.19482e-05
2.19971e-05
2.19238e-05
2.19482e-05
2.18994e-05
2.19482e-05
2.1875e-05
2.18994e-05
2.18506e-05
2.18994e-05
2.18262e-05
2.18506e-05
2.18018e-05
2.18506e-05
2.17773e-05
2.18018e-05
2.17529e-05
2.18018e-05
2.17041e-05
2.17529e-05
2.17041e-05
2.17529e-05
2.16797e-05
2.17041e-05
2.16553e-05
2.17041e-05
2.16309e-05
2.16797e-05
2.16064e-05
2.16553e-05
2.1582e-05
2.16309e-05
2.1582e-05
2.16553e-05
2.1582e-05
2.16309e-05
2.1582e-05
2.16309e-05
2.1582e-05
2.16064e-05
2.15576e-05
2.16309e-05
2.15576e-05
2.16064e-05
2.15576e-05
2.16064e-05
2.15576e-05
2.16064e-05
2.15332e-05
2.1582e-05
2.15576e-05
2.1582e-05
2.15332e-05
2.1582e-05
2.15332e-05
2.15576e-05
2.15332e-05
2.1582e-05
2.15332e-05
2.15332e-05
2.15088e-05
2.15576e-05
2.14844e-05
2.15332e-05
2.14844e-05
2.15332e-05
2.14844e-05
2.15088e-05
2.146e-05
2.15088e-05
2.146e-05
2.14844e-05
2.146e-05
2.14844e-05
2.146e-05
2.146e-05
2.14111e-05
2.146e-05
2.14111e-05
2.14355e-05
2.13867e-05
2.146e-05
2.13867e-05
2.14355e-05
2.13867e-05
2.14355e-05
2.13623e-05
2.14111e-05
2.13623e-05
2.14111e-05
2.13623e-05
2.13867e-05
2.13379e-05
2.13867e-05
2.13379e-05
2.13623e-05
2.13135e-05
2.13623e-05
2.13135e-05
2.13379e-05
2.12891e-05
2.13379e-05
2.12646e-05
2.13135e-05
2.12646e-05
2.13135e-05
2.12646e-05
2.12891e-05
2.12646e-05
2.12891e-05
2.12402e-05
2.12646e-05
2.12402e-05
2.12646e-05
2.12158e-05
2.12646e-05
2.11914e-05
2.12646e-05
2.12158e-05
2.12402e-05
2.11914e-05
2.12402e-05
2.1167e-05
2.12158e-05
2.1167e-05
2.12158e-05
2.1167e-05
2.11914e-05
2.11426e-05
2.11914e-05
2.11182e-05
2.1167e-05
2.11182e-05
2.1167e-05
2.11182e-05
2.11426e-05
2.11182e-05
2.1167e-05
2.10937e-05
2.11426e-05
2.10937e-05
2.11426e-05
2.10937e-05
2.11182e-05
2.10937e-05
2.11426e-05
2.10693e-05
2.11182e-05
2.10693e-05
2.11182e-05
2.10693e-05
2.11182e-05
2.10693e-05
2.11182e-05
2.10693e-05
2.10937e-05
2.10693e-05
2.10937e-05
2.10449e-05
2.10937e-05
2.10449e-05
2.10937e-05
2.10449e-05
2.10937e-05
2.10449e-05
2.10937e-05
2.10205e-05
2.10693e-05
2.10205e-05
2.10693e-05
2.10205e-05
2.10449e-05
2.09961e-05
2.10693e-05
2.09961e-05
2.10449e-05
2.09961e-05
2.10449e-05
2.09961e-05
2.10449e-05
2.09961e-05
2.10449e-05
2.09961e-05
2.10449e-05
2.09961e-05
2.10449e-05
2.09961e-05
2.10205e-05
2.09717e-05
2.10449e-05
2.09717e-05
2.10205e-05
2.09717e-05
2.10205e-05
2.09717e-05
2.09961e-05
2.09717e-05
2.10205e-05
2.09717e-05
2.09961e-05
2.09717e-05
2.10205e-05
2.09717e-05
2.09961e-05
2.09717e-05
2.09961e-05
2.09717e-05
2.09961e-05
2.09717e-05
2.09961e-05
2.09473e-05
2.09961e-05
2.09473e-05
2.09961e-05
2.09473e-05
2.09961e-05
2.09473e-05
2.09961e-05
2.09473e-05
2.09961e-05
2.09473e-05
2.09961e-05
2.09473e-05
2.09961e-05
2.09473e-05
2.09961e-05
2.09473e-05
2.09961e-05
2.09473e-05
2.09961e-05
2.09473e-05
2.09961e-05
2.09473e-05
2.09961e-05
2.09473e-05
2.09961e-05
2.09717e-05
2.09961e-05
2.09473e-05
2.09961e-05
2.09473e-05
2.09961e-05
2.09717e-05
2.09961e-05
2.09473e-05
2.09961e-05
2.09473e-05
2.09961e-05
2.09473e-05
2.09717e-05
2.09473e-05
2.09717e-05
2.09229e-05
2.09717e-05
2.09473e-05
2.09717e-05
2.09473e-05
2.09717e-05
2.09473e-05
2.09717e-05
2.09229e-05
2.09717e-05
2.09473e-05
2.09717e-05
2.09229e-05
2.09717e-05
2.09473e-05
2.09717e-05
2.09229e-05
2.09717e-05
2.09473e-05
2.09717e-05
2.09229e-05
2.09717e-05
2.09473e-05
2.09717e-05
2.09229e-05
2.09717e-05
2.09473e-05
2.09717e-05
2.09473e-05
2.09961e-05
2.09473e-05
2.09717e-05
2.09473e-05
2.09961e-05
2.09717e-05
2.10205e-05
2.09717e-05
2.09961e-05
2.09961e-05
2.10205e-05
2.09717e-05
2.10205e-05
2.09961e-05
2.10205e-05
2.09961e-05
2.10205e-05
2.09961e-05
2.10449e-05
2.09961e-05
2.10449e-05
2.10205e-05
2.10449e-05
2.09961e-05
2.10449e-05
2.10205e-05
2.10693e-05
2.10205e-05
2.10693e-05
2.10449e-05
2.10693e-05
2.10205e-05
2.10693e-05
2.10449e-05
2.10937e-05
2.10449e-05
2.10937e-05
2.10693e-05
2.10937e-05
2.10449e-05
2.10937e-05
2.10693e-05
2.10937e-05
2.10693e-05
2.10937e-05
2.10937e-05
2.10937e-05
2.10693e-05
2.11182e-05
2.10937e-05
2.11182e-05
2.10937e-05
2.11182e-05
2.10937e-05
2.11182e-05
2.10937e-05
2.11426e-05
2.11182e-05
2.11426e-05
2.10937e-05
2.1167e-05
2.11182e-05
2.11426e-05
2.11182e-05
2.1167e-05
2.11426e-05
2.1167e-05
2.11426e-05
2.11914e-05
2.11426e-05
2.11914e-05
2.11426e-05
2.11914e-05
2.1167e-05
2.11914e-05
2.1167e-05
2.11914e-05
2.1167e-05
2.12158e-05
2.1167e-05
2.12158e-05
2.1167e-05
2.12158e-05
2.1167e-05
2.12402e-05
2.1167e-05
2.12158e-05
2.11914e-05
2.12402e-05
2.11914e-05
2.12158e-05
2.11914e-05
2.12402e-05
2.11914e-05
2.12402e-05
2.11914e-05
2.12402e-05
2.11914e-05
2.12158e-05
2.11914e-05
2.12402e-05
2.1167e-05
2.12158e-05
2.11914e-05
2.12402e-05
2.1167e-05
2.12158e-05
2.1167e-05
2.12158e-05
2.1167e-05
2.11914e-05
2.1167e-05
2.12158e-05
2.1167e-05
2.12158e-05
2.1167e-05
2.12402e-05
2.11914e-05
2.12158e-05
2.11914e-05
2.12402e-05
2.11914e-05
2.12402e-05
2.11914e-05
2.12402e-05
2.11914e-05
2.12158e-05
2.11914e-05
2.12402e-05
2.11914e-05
2.12158e-05
2.1167e-05
2.12158e-05
2.1167e-05
2.12158e-05
2.1167e-05
2.12158e-05
2.1167e-05
2.12158e-05
2.1167e-05
2.12158e-05
2.1167e-05
2.11914e-05
2.1167e-05
2.12158e-05
2.11426e-05
2.11914e-05
2.1167e-05
2.11914e-05
2.1167e-05
2.1167e-05
2.11426e-05
2.11914e-05
2.11426e-05
2.1167e-05
2.1167e-05
2.1167e-05
2.11426e-05
2.1167e-05
2.11426e-05
2.1167e-05
2.11426e-05
2.1167e-05
2.11426e-05
2.1167e-05
2.1167e-05
2.1167e-05
2.1167e-05
2.1167e-05
2.1167e-05
2.1167e-05
2.11914e-05
2.11914e-05
2.11914e-05
2.11914e-05
2.12158e-05
2.12158e-05
2.12402e-05
2.12158e-05
2.12646e-05
2.12402e-05
2.12646e-05
2.12402e-05
2.12891e-05
2.12891e-05
2.13135e-05
2.12891e-05
2.13623e-05
2.13379e-05
2.13867e-05
2.13379e-05
2.14111e-05
2.13867e-05
2.14355e-05
2.14111e-05
2.14844e-05
2.146e-05
2.15088e-05
2.14844e-05
2.15332e-05
2.15088e-05
2.15576e-05
2.15332e-05
2.16064e-05
2.1582e-05
2.16309e-05
2.16064e-05
2.16797e-05
2.16553e-05
2.16797e-05
2.16553e-05
2.17285e-05
2.17041e-05
2.17773e-05
2.17285e-05
2.18018e-05
2.17773e-05
2.18262e-05
2.17773e-05
2.1875e-05
2.18262e-05
2.1875e-05
2.18506e-05
2.19238e-05
2.1875e-05
2.19482e-05
2.19238e-05
2.19727e-05
2.19482e-05
2.19971e-05
2.19727e-05
2.20215e-05
2.19971e-05
2.20703e-05
2.20215e-05
2.20703e-05
2.20459e-05
2.20947e-05
2.20459e-05
2.21191e-05
2.20947e-05
2.21436e-05
2.20947e-05
2.2168e-05
2.21191e-05
2.21924e-05
2.21436e-05
2.22168e-05
2.2168e-05
2.22168e-05
2.2168e-05
2.22412e-05
2.21924e-05
2.22412e-05
2.22168e-05
2.22656e-05
2.22168e-05
2.229e-05
2.22168e-05
2.229e-05
2.22412e-05
2.229e-05
2.22412e-05
2.23145e-05
2.22656e-05
2.23145e-05
2.229e-05
2.23389e-05
2.229e-05
2.23389e-05
2.229e-05
2.23633e-05
2.23145e-05
2.23633e-05
2.229e-05
2.23633e-05
2.23389e-05
2.23633e-05
2.23145e-05
2.23877e-05
2.23389e-05
2.23877e-05
2.23145e-05
2.23877e-05
2.23389e-05
2.23877e-05
2.23389e-05
2.23877e-05
2.23389e-05
2.23877e-05
2.23389e-05
2.23877e-05
2.23389e-05
2.23877e-05
2.23389e-05
2.23877e-05
2.23389e-05
2.23877e-05
2.23145e-05
2.23877e-05
2.23389e-05
2.23877e-05
2.23145e-05
2.23877e-05
2.23389e-05
2.23877e-05
2.23145e-05
2.23877e-05
2.23389e-05
2.23633e-05
2.23145e-05
2.23633e-05
2.23145e-05
2.23633e-05
2.23145e-05
2.23633e-05
2.23145e-05
2.23389e-05
2.229e-05
2.23389e-05
2.22656e-05
2.23145e-05
2.22412e-05
2.229e-05
2.22412e-05
2.229e-05
2.22168e-05
2.22656e-05
2.22168e-05
2.22656e-05
2.21924e-05
2.22412e-05
2.21924e-05
2.22168e-05
2.2168e-05
2.22168e-05
2.2168e-05
2.21924e-05
2.21436e-05
2.21924e-05
2.21436e-05
2.2168e-05
2.21191e-05
2.2168e-05
2.21191e-05
2.21436e-05
2.20947e-05
2.21436e-05
2.20947e-05
2.21191e-05
2.20703e-05
2.20947e-05
2.20703e-05
2.20947e-05
2.20459e-05
2.20703e-05
2.20459e-05
2.20703e-05
2.20215e-05
2.20459e-05
2.20215e-05
2.20459e-05
2.20215e-05
2.20459e-05
2.20215e-05
2.20215e-05
2.19971e-05
2.20215e-05
2.19971e-05
2.20215e-05
2.19727e-05
2.20215e-05
2.19727e-05
2.20215e-05
2.19727e-05
2.19971e-05
2.19727e-05
2.19971e-05
2.19482e-05
2.19971e-05
2.19727e-05
2.19727e-05
2.19482e-05
2.19727e-05
2.19482e-05
2.19727e-05
2.19482e-05
2.19727e-05
2.19482e-05
2.19482e-05
2.19238e-05
2.19482e-05
2.19238e-05
2.19482e-05
2.18994e-05
2.19482e-05
2.19238e-05
2.19482e-05
2.18994e-05
2.19482e-05
2.18994e-05
2.19238e-05
2.18994e-05
2.19238e-05
2.18994e-05
2.18994e-05
2.1875e-05
2.18994e-05
2.1875e-05
2.18994e-05
2.1875e-05
2.18994e-05
2.1875e-05
2.1875e-05
2.18506e-05
2.1875e-05
2.1875e-05
2.1875e-05
2.18506e-05
2.1875e-05
2.18506e-05
2.18506e-05
2.18262e-05
2.18506e-05
2.18262e-05
2.18506e-05
2.18262e-05
2.18506e-05
2.18018e-05
2.18506e-05
2.18018e-05
2.18262e-05
2.18018e-05
2.18262e-05
2.18018e-05
2.18262e-05
2.18018e-05
2.18262e-05
2.17773e-05
2.18262e-05
2.17773e-05
2.18018e-05
2.17773e-05
2.18018e-05
2.17773e-05
2.18018e-05
2.17773e-05
2.18018e-05
2.17773e-05
2.17773e-05
2.17529e-05
2.17773e-05
2.17529e-05
2.17773e-05
2.17529e-05
2.17773e-05
2.17285e-05
2.17773e-05
2.17285e-05
2.17529e-05
2.17041e-05
2.17529e-05
2.17285e-05
2.17529e-05
2.17041e-05
2.17529e-05
2.17041e-05
2.17285e-05
2.17041e-05
2.17285e-05
2.16797e-05
2.17285e-05
2.16797e-05
2.17041e-05
2.16797e-05
2.17041e-05
2.16797e-05
2.17041e-05
2.16797e-05
2.16797e-05
2.16553e-05
2.16797e-05
2.16553e-05
2.16797e-05
2.16553e-05
2.16797e-05
2.16309e-05
2.16553e-05
2.16309e-05
2.16553e-05
2.16309e-05
2.16553e-05
2.16309e-05
2.16309e-05
2.16309e-05
2.16553e-05
2.16309e-05
2.16309e-05
2.16064e-05
2.16309e-05
2.1582e-05
2.16309e-05
2.1582e-05
2.16064e-05
2.1582e-05
2.16064e-05
2.1582e-05
2.1582e-05
2.1582e-05
2.1582e-05
2.15576e-05
2.1582e-05
2.15576e-05
2.15576e-05
2.15332e-05
2.15576e-05
2.15332e-05
2.15576e-05
2.15088e-05
2.15332e-05
2.15088e-05
2.15332e-05
2.15088e-05
2.15332e-05
2.15088e-05
2.15088e-05
2.14844e-05
2.15088e-05
2.14844e-05
2.15088e-05
2.14844e-05
2.14844e-05
2.14844e-05
2.14844e-05
2.146e-05
2.14844e-05
2.146e-05
2.14844e-05
2.146e-05
2.14844e-05
2.146e-05
2.146e-05
2.14355e-05
2.146e-05
2.14355e-05
2.146e-05
2.14355e-05
2.146e-05
2.14355e-05
2.14355e-05
2.14111e-05
2.14355e-05
2.14111e-05
2.14111e-05
2.14111e-05
2.14111e-05
2.14111e-05
2.14111e-05
2.13867e-05
2.13867e-05
2.13867e-05
2.13867e-05
2.13867e-05
2.13867e-05
2.13867e-05
2.13867e-05
2.13623e-05
2.13867e-05
2.13623e-05
2.13867e-05
2.13623e-05
2.13867e-05
2.13623e-05
2.13867e-05
2.13623e-05
2.13867e-05
2.13867e-05
2.14111e-05
2.13867e-05
2.14111e-05
2.13867e-05
2.14111e-05
2.14111e-05
2.14355e-05
2.14355e-05
2.146e-05
2.14355e-05
2.14844e-05
2.146e-05
2.14844e-05
2.146e-05
2.15088e-05
2.14844e-05
2.15088e-05
2.14844e-05
2.15332e-05
2.15088e-05
2.15576e-05
2.15332e-05
2.1582e-05
2.15576e-05
2.1582e-05
2.15576e-05
2.16064e-05
2.1582e-05
2.16309e-05
2.16064e-05
2.16553e-05
2.16309e-05
2.16797e-05
2.16309e-05
2.16797e-05
2.16797e-05
2.17041e-05
2.16797e-05
2.17285e-05
2.17041e-05
2.17285e-05
2.17041e-05
2.17529e-05
2.17285e-05
2.17773e-05
2.17529e-05
2.17773e-05
2.17773e-05
2.18018e-05
2.17773e-05
2.18262e-05
2.17773e-05
2.18262e-05
2.18018e-05
2.18506e-05
2.18262e-05
2.18506e-05
2.18262e-05
2.1875e-05
2.18506e-05
2.1875e-05
2.18506e-05
2.1875e-05
2.1875e-05
2.18994e-05
2.1875e-05
2.18994e-05
2.1875e-05
2.18994e-05
2.1875e-05
2.19238e-05
2.1875e-05
2.19238e-05
2.1875e-05
2.19238e-05
2.18994e-05
2.19238e-05
2.18994e-05
2.19482e-05
2.19238e-05
2.19482e-05
2.19238e-05
2.19482e-05
2.19482e-05
2.19727e-05
2.19482e-05
2.19727e-05
2.19482e-05
2.19971e-05
2.19727e-05
2.20215e-05
2.19971e-05
2.20215e-05
2.19971e-05
2.20459e-05
2.20215e-05
2.20459e-05
2.20459e-05
2.20703e-05
2.20459e-05
2.20947e-05
2.20703e-05
2.21191e-05
2.21191e-05
2.2168e-05
2.21436e-05
2.21924e-05
2.21924e-05
2.22168e-05
2.22168e-05
2.22656e-05
2.22412e-05
2.229e-05
2.22656e-05
2.23145e-05
2.23145e-05
2.23633e-05
2.23389e-05
2.23877e-05
2.23633e-05
2.24121e-05
2.24121e-05
2.24609e-05
2.24365e-05
2.24854e-05
2.24609e-05
2.25342e-05
2.25098e-05
2.25586e-05
2.25342e-05
2.26074e-05
2.2583e-05
2.26318e-05
2.26318e-05
2.26562e-05
2.26562e-05
2.27051e-05
2.26807e-05
2.27539e-05
2.27295e-05
2.27783e-05
2.27539e-05
2.28271e-05
2.28027e-05
2.28516e-05
2.28516e-05
2.29004e-05
2.2876e-05
2.29492e-05
2.29248e-05
2.29736e-05
2.29736e-05
2.2998e-05
2.2998e-05
2.30469e-05
2.30225e-05
2.30469e-05
2.30469e-05
2.30713e-05
2.30713e-05
2.31201e-05
2.30957e-05
2.31445e-05
2.30957e-05
2.31445e-05
2.31201e-05
2.31934e-05
2.31445e-05
2.31934e-05
2.31445e-05
2.31934e-05
2.31934e-05
2.32178e-05
2.31934e-05
2.32422e-05
2.32178e-05
2.32422e-05
2.32178e-05
2.32422e-05
2.32422e-05
2.32666e-05
2.32422e-05
2.3291e-05
2.32666e-05
2.33398e-05
2.3291e-05
2.33398e-05
2.33154e-05
2.33643e-05
2.33154e-05
2.33643e-05
2.33398e-05
2.33887e-05
2.33398e-05
2.33643e-05
2.33398e-05
2.33887e-05
2.33398e-05
2.33887e-05
2.33398e-05
2.33887e-05
2.33398e-05
2.33887e-05
2.33398e-05
2.33887e-05
2.33643e-05
2.33887e-05
2.33643e-05
2.34131e-05
2.33643e-05
2.34131e-05
2.33887e-05
2.34375e-05
2.33887e-05
2.34375e-05
2.33887e-05
2.34375e-05
2.33887e-05
2.34375e-05
2.33643e-05
2.34131e-05
2.33643e-05
2.34131e-05
2.33643e-05
2.34131e-05
2.33398e-05
2.33887e-05
2.33398e-05
2.33643e-05
2.33154e-05
2.33398e-05
2.3291e-05
2.33398e-05
2.3291e-05
2.33154e-05
2.32666e-05
2.3291e-05
2.32422e-05
2.3291e-05
2.32178e-05
2.32666e-05
2.32178e-05
2.32422e-05
2.31934e-05
2.32422e-05
2.31934e-05
2.32178e-05
2.31689e-05
2.31934e-05
2.31445e-05
2.31934e-05
2.31445e-05
2.31934e-05
2.31445e-05
2.31689e-05
2.31201e-05
2.31689e-05
2.31201e-05
2.31689e-05
2.31201e-05
2.31689e-05
2.31201e-05
2.31689e-05
2.31201e-05
2.31689e-05
2.31201e-05
2.31445e-05
2.31201e-05
2.31445e-05
2.31201e-05
2.31445e-05
2.31201e-05
2.31445e-05
2.30957e-05
2.31445e-05
2.30957e-05
2.31445e-05
2.31201e-05
2.31445e-05
2.31201e-05
2.31445e-05
2.31201e-05
2.31445e-05
2.31201e-05
2.31445e-05
2.31201e-05
2.31689e-05
2.31201e-05
2.31445e-05
2.31201e-05
2.31689e-05
2.31201e-05
2.31445e-05
2.31201e-05
2.31689e-05
2.31201e-05
2.31445e-05
2.31201e-05
2.31445e-05
2.31201e-05
2.31689e-05
2.31201e-05
2.31689e-05
2.31201e-05
2.31689e-05
2.31201e-05
2.31689e-05
2.31201e-05
2.31445e-05
2.31201e-05
2.31689e-05
2.31201e-05
2.31445e-05
2.31201e-05
2.31445e-05
2.31201e-05
2.31445e-05
2.31201e-05
2.31445e-05
2.31201e-05
2.31689e-05
2.31201e-05
2.31689e-05
2.31201e-05
2.31689e-05
2.31201e-05
2.31445e-05
2.31201e-05
2.31445e-05
2.31201e-05
2.31689e-05
2.31445e-05
2.31689e-05
2.31445e-05
2.31934e-05
2.31445e-05
2.31689e-05
2.31445e-05
2.31934e-05
2.31445e-05
2.31689e-05
2.31445e-05
2.31934e-05
2.31445e-05
2.31689e-05
2.31201e-05
2.31689e-05
2.31201e-05
2.31445e-05
2.31201e-05
2.31445e-05
2.30957e-05
2.31445e-05
2.30957e-05
2.31201e-05
2.30957e-05
2.31201e-05
2.30713e-05
2.30957e-05
2.30469e-05
2.30713e-05
2.30469e-05
2.30713e-05
2.30225e-05
2.30469e-05
2.30225e-05
2.30469e-05
2.2998e-05
2.30225e-05
2.29736e-05
2.30225e-05
2.29736e-05
2.2998e-05
2.29492e-05
2.2998e-05
2.29492e-05
2.29492e-05
2.29248e-05
2.29492e-05
2.29004e-05
2.29492e-05
2.2876e-05
2.29248e-05
2.2876e-05
2.29004e-05
2.28516e-05
2.29004e-05
2.28516e-05
2.2876e-05
2.28271e-05
2.28516e-05
2.28027e-05
2.28271e-05
2.28027e-05
2.28271e-05
2.28027e-05
2.28271e-05
2.27783e-05
2.28271e-05
2.28027e-05
2.28271e-05
2.27783e-05
2.28271e-05
2.27783e-05
2.28271e-05
2.27783e-05
2.28271e-05
2.27783e-05
2.28271e-05
2.27539e-05
2.28027e-05
2.27539e-05
2.28027e-05
2.27295e-05
2.27783e-05
2.27295e-05
2.27539e-05
2.27051e-05
2.27539e-05
2.27051e-05
2.27295e-05
2.26807e-05
2.27051e-05
2.26807e-05
2.26807e-05
2.26562e-05
2.26807e-05
2.26318e-05
2.26562e-05
2.26318e-05
2.26562e-05
2.26074e-05
2.26318e-05
2.2583e-05
2.26074e-05
2.2583e-05
2.26074e-05
2.25586e-05
2.26074e-05
2.25586e-05
2.2583e-05
2.25342e-05
2.25586e-05
2.25342e-05
2.25586e-05
2.25098e-05
2.25586e-05
2.25098e-05
2.25342e-05
2.24854e-05
2.25098e-05
2.24854e-05
2.25098e-05
2.24609e-05
2.24854e-05
2.24609e-05
2.24854e-05
2.24365e-05
2.24854e-05
2.24365e-05
2.24609e-05
2.24365e-05
2.24609e-05
2.24121e-05
2.24609e-05
2.24121e-05
2.24365e-05
2.24121e-05
2.24365e-05
2.23877e-05
2.24365e-05
2.23633e-05
2.24121e-05
2.23633e-05
2.24121e-05
2.23633e-05
2.24121e-05
2.23633e-05
2.23877e-05
2.23633e-05
2.23877e-05
2.23389e-05
2.23633e-05
2.23389e-05
2.23633e-05
2.23145e-05
2.23389e-05
2.229e-05
2.23389e-05
2.229e-05
2.23389e-05
2.229e-05
2.23145e-05
2.22656e-05
2.23145e-05
2.22656e-05
2.229e-05
2.22656e-05
2.229e-05
2.22412e-05
2.229e-05
2.22412e-05
2.229e-05
2.22412e-05
2.229e-05
2.22412e-05
2.22656e-05
2.22168e-05
2.22656e-05
2.22168e-05
2.22656e-05
2.22168e-05
2.22656e-05
2.22168e-05
2.22412e-05
2.22168e-05
2.22656e-05
2.22168e-05
2.22412e-05
2.22168e-05
2.22412e-05
2.22168e-05
2.22412e-05
2.21924e-05
2.22412e-05
2.21924e-05
2.22412e-05
2.21924e-05
2.22412e-05
2.21924e-05
2.22168e-05
2.21924e-05
2.22168e-05
2.2168e-05
2.22168e-05
2.2168e-05
2.22168e-05
2.2168e-05
2.21924e-05
2.2168e-05
2.21924e-05
2.2168e-05
2.21924e-05
2.2168e-05
2.2168e-05
2.21436e-05
2.21924e-05
2.21436e-05
2.2168e-05
2.21191e-05
2.2168e-05
2.21191e-05
2.2168e-05
2.21191e-05
2.21436e-05
2.21191e-05
2.21436e-05
2.20947e-05
2.21436e-05
2.21191e-05
2.2168e-05
2.21191e-05
2.2168e-05
2.21191e-05
2.2168e-05
2.21191e-05
2.2168e-05
2.21191e-05
2.2168e-05
2.21191e-05
2.2168e-05
2.21191e-05
2.21436e-05
2.20947e-05
2.21436e-05
2.20947e-05
2.21436e-05
2.20947e-05
2.21436e-05
2.20947e-05
2.21191e-05
2.20947e-05
2.21191e-05
2.20703e-05
2.20947e-05
2.20703e-05
2.20947e-05
2.20703e-05
2.20947e-05
2.20459e-05
2.20947e-05
2.20703e-05
2.20947e-05
2.20459e-05
2.20703e-05
2.20459e-05
2.20703e-05
2.20459e-05
2.20703e-05
2.20215e-05
2.20459e-05
2.20215e-05
2.20459e-05
2.20215e-05
2.20459e-05
2.20215e-05
2.20459e-05
2.20215e-05
2.20459e-05
2.19971e-05
2.20459e-05
2.19971e-05
2.20459e-05
2.19971e-05
2.20215e-05
2.19727e-05
2.20215e-05
2.19727e-05
2.20215e-05
2.19727e-05
2.20215e-05
2.19727e-05
2.20215e-05
2.19727e-05
2.19971e-05
2.19727e-05
2.19971e-05
2.19727e-05
2.19971e-05
2.19727e-05
2.20215e-05
2.19727e-05
2.20215e-05
2.19727e-05
2.20215e-05
2.19727e-05
2.20215e-05
2.19727e-05
2.20215e-05
2.19971e-05
2.20459e-05
2.19971e-05
2.20459e-05
2.19971e-05
2.20459e-05
2.20215e-05
2.20459e-05
2.20215e-05
2.20703e-05
2.20459e-05
2.20703e-05
2.20459e-05
2.20947e-05
2.20459e-05
2.20947e-05
2.20703e-05
2.21191e-05
2.20947e-05
2.21436e-05
2.20947e-05
2.21436e-05
2.21191e-05
2.2168e-05
2.21436e-05
2.2168e-05
2.2168e-05
2.21924e-05
2.2168e-05
2.22168e-05
2.21924e-05
2.22412e-05
2.22168e-05
2.22656e-05
2.22412e-05
2.229e-05
2.22656e-05
2.229e-05
2.229e-05
2.23389e-05
2.229e-05
2.23389e-05
2.23389e-05
2.23633e-05
2.23389e-05
2.24121e-05
2.23633e-05
2.24121e-05
2.23877e-05
2.24365e-05
2.24121e-05
2.24609e-05
2.24365e-05
2.24854e-05
2.24609e-05
2.24854e-05
2.24609e-05
2.25098e-05
2.24854e-05
2.25342e-05
2.25098e-05
2.25586e-05
2.25342e-05
2.25586e-05
2.25342e-05
2.2583e-05
2.25586e-05
2.26074e-05
2.2583e-05
2.26318e-05
2.26074e-05
2.26318e-05
2.26074e-05
2.26562e-05
2.26318e-05
2.26562e-05
2.26318e-05
2.26807e-05
2.26562e-05
2.27051e-05
2.26562e-05
2.27051e-05
2.26807e-05
2.27051e-05
2.26807e-05
2.27295e-05
2.27051e-05
2.27295e-05
2.27051e-05
2.27295e-05
2.27051e-05
2.27539e-05
2.27051e-05
2.27539e-05
2.27295e-05
2.27539e-05
2.27295e-05
2.27539e-05
2.27295e-05
2.27539e-05
2.27295e-05
2.27539e-05
2.27295e-05
2.27783e-05
2.27295e-05
2.27783e-05
2.27295e-05
2.27539e-05
2.27295e-05
2.27539e-05
2.27295e-05
2.27539e-05
2.27051e-05
2.27539e-05
2.27295e-05
2.27539e-05
2.27051e-05
2.27539e-05
2.27051e-05
2.27295e-05
2.26807e-05
2.27295e-05
2.27051e-05
2.27295e-05
2.26807e-05
2.27295e-05
2.26807e-05
2.27295e-05
2.26807e-05
2.27051e-05
2.26807e-05
2.27051e-05
2.26562e-05
2.26807e-05
2.26562e-05
2.26807e-05
2.26562e-05
2.26807e-05
2.26318e-05
2.26807e-05
2.26318e-05
2.26562e-05
2.26074e-05
2.26562e-05
2.26074e-05
2.26318e-05
2.26074e-05
2.26318e-05
2.2583e-05
2.26074e-05
2.25586e-05
2.26074e-05
2.25586e-05
2.2583e-05
2.25586e-05
2.2583e-05
2.25342e-05
2.25586e-05
2.25342e-05
2.25586e-05
2.25098e-05
2.25586e-05
2.25098e-05
2.25342e-05
2.24854e-05
2.25342e-05
2.24854e-05
2.25098e-05
2.24609e-05
2.24854e-05
2.24609e-05
2.24854e-05
2.24365e-05
2.24609e-05
2.24121e-05
2.24365e-05
2.23877e-05
2.24365e-05
2.23633e-05
2.24121e-05
2.23389e-05
2.23877e-05
2.23389e-05
2.23633e-05
2.23145e-05
2.23389e-05
2.23145e-05
2.23389e-05
2.22656e-05
2.23145e-05
2.22656e-05
2.229e-05
2.22656e-05
2.229e-05
2.22412e-05
2.22656e-05
2.22412e-05
2.22656e-05
2.22168e-05
2.22412e-05
2.22168e-05
2.22412e-05
2.22168e-05
2.22412e-05
2.2168e-05
2.22168e-05
2.2168e-05
2.22168e-05
2.2168e-05
2.21924e-05
2.2168e-05
2.21924e-05
2.2168e-05
2.21924e-05
2.21436e-05
2.21924e-05
2.21436e-05
2.2168e-05
2.21436e-05
2.2168e-05
2.21191e-05
2.21436e-05
2.21191e-05
2.21436e-05
2.20947e-05
2.21436e-05
2.20947e-05
2.21436e-05
2.20703e-05
2.21191e-05
2.20703e-05
2.21191e-05
2.20703e-05
2.20947e-05
2.20703e-05
2.20947e-05
2.20459e-05
2.20703e-05
2.20459e-05
2.20703e-05
2.20459e-05
2.20703e-05
2.20459e-05
2.20703e-05
2.20215e-05
2.20703e-05
2.20215e-05
2.20459e-05
2.19971e-05
2.20459e-05
2.19971e-05
2.20459e-05
2.19971e-05
2.20215e-05
2.19727e-05
2.19971e-05
2.19727e-05
2.20215e-05
2.19482e-05
2.19971e-05
2.19482e-05
2.19727e-05
2.19482e-05
2.19727e-05
2.19238e-05
2.19727e-05
2.19238e-05
2.19727e-05
2.19238e-05
2.19482e-05
2.18994e-05
2.19482e-05
2.18994e-05
2.19238e-05
2.18994e-05
2.19238e-05
2.1875e-05
2.19238e-05
2.1875e-05
2.19238e-05
2.1875e-05
2.19238e-05
2.1875e-05
2.19238e-05
2.1875e-05
2.19238e-05
2.1875e-05
2.19238e-05
2.1875e-05
2.18994e-05
2.1875e-05
2.18994e-05
2.1875e-05
2.18994e-05
2.18506e-05
2.18994e-05
2.1875e-05
2.18994e-05
2.18506e-05
2.18994e-05
2.18506e-05
2.18994e-05
2.18506e-05
2.18994e-05
2.18506e-05
2.18994e-05
2.1875e-05
2.18994e-05
2.18506e-05
2.18994e-05
2.1875e-05
2.18994e-05
2.18506e-05
2.18994e-05
2.18506e-05
2.18994e-05
2.18506e-05
2.18994e-05
2.1875e-05
2.19238e-05
2.1875e-05
2.19238e-05
2.1875e-05
2.19238e-05
2.1875e-05
2.19238e-05
2.18994e-05
2.19482e-05
2.18994e-05
2.19482e-05
2.18994e-05
2.19482e-05
2.18994e-05
2.19482e-05
2.19238e-05
2.19727e-05
2.19238e-05
2.19727e-05
2.19238e-05
2.19727e-05
2.19238e-05
2.19727e-05
2.19482e-05
2.19971e-05
2.19482e-05
2.19971e-05
2.19482e-05
2.19971e-05
2.19482e-05
2.19971e-05
2.19727e-05
2.20215e-05
2.19727e-05
2.20215e-05
2.19727e-05
2.20215e-05
2.19727e-05
2.20215e-05
2.19971e-05
2.20459e-05
2.19727e-05
2.20459e-05
2.19971e-05
2.20459e-05
2.19971e-05
2.20459e-05
2.20215e-05
2.20459e-05
2.20215e-05
2.20459e-05
2.20215e-05
2.20703e-05
2.20215e-05
2.20703e-05
2.20215e-05
2.20703e-05
2.20215e-05
2.20703e-05
2.20215e-05
2.20703e-05
2.20215e-05
2.20703e-05
2.20215e-05
2.20703e-05
2.20215e-05
2.20459e-05
2.20459e-05
2.20703e-05
2.20215e-05
2.20459e-05
2.20215e-05
2.20703e-05
2.20215e-05
2.20703e-05
2.20215e-05
2.20703e-05
2.20215e-05
2.20703e-05
2.20215e-05
2.20459e-05
2.19971e-05
2.20459e-05
2.20215e-05
2.20459e-05
2.19971e-05
2.20459e-05
2.20215e-05
2.20459e-05
2.19971e-05
2.20459e-05
2.19971e-05
2.20459e-05
2.19727e-05
2.20215e-05
2.19971e-05
2.20215e-05
2.19727e-05
2.20215e-05
2.19727e-05
2.20215e-05
2.19482e-05
2.20215e-05
2.19727e-05
2.19971e-05
2.19482e-05
2.19971e-05
2.19482e-05
2.19971e-05
2.19482e-05
2.19971e-05
2.19482e-05
2.19727e-05
2.19238e-05
2.19727e-05
2.19238e-05
2.19727e-05
2.18994e-05
2.19482e-05
2.18994e-05
2.19482e-05
2.18994e-05
2.19238e-05
2.18994e-05
2.19482e-05
2.18994e-05
2.19238e-05
2.1875e-05
2.19238e-05
2.1875e-05
2.19238e-05
2.1875e-05
2.19238e-05
2.1875e-05
2.19238e-05
2.1875e-05
2.18994e-05
2.1875e-05
2.19238e-05
2.1875e-05
2.19238e-05
2.1875e-05
2.18994e-05
2.1875e-05
2.19238e-05
2.18506e-05
2.18994e-05
2.1875e-05
2.18994e-05
2.18506e-05
2.18994e-05
2.1875e-05
2.18994e-05
2.18506e-05
2.18994e-05
2.18506e-05
2.18994e-05
2.18506e-05
2.1875e-05
2.18506e-05
2.1875e-05
2.18506e-05
2.1875e-05
2.18506e-05
2.1875e-05
2.18262e-05
2.1875e-05
2.18506e-05
2.1875e-05
2.18262e-05
2.1875e-05
2.18262e-05
2.1875e-05
2.18262e-05
2.1875e-05
2.18262e-05
2.1875e-05
2.18018e-05
2.18506e-05
2.18262e-05
2.18506e-05
2.18018e-05
2.18506e-05
2.18262e-05
2.18506e-05
2.18018e-05
2.18506e-05
2.18018e-05
2.18506e-05
2.18018e-05
2.18506e-05
2.18018e-05
2.18506e-05
2.18018e-05
2.18506e-05
2.18018e-05
2.18506e-05
2.18018e-05
2.18262e-05
2.17773e-05
2.18262e-05
2.17773e-05
2.18262e-05
2.18018e-05
2.18262e-05
2.17773e-05
2.18262e-05
2.17773e-05
2.18262e-05
2.17529e-05
2.18018e-05
2.17773e-05
2.18262e-05
2.17529e-05
2.18262e-05
2.17773e-05
2.18262e-05
2.17773e-05
2.18262e-05
2.17773e-05
2.18262e-05
2.17773e-05
2.18262e-05
2.17773e-05
2.18262e-05
2.17773e-05
2.18262e-05
2.18018e-05
2.18262e-05
2.17773e-05
2.18262e-05
2.17773e-05
2.18262e-05
2.18018e-05
2.18262e-05
2.17773e-05
2.18262e-05
2.17773e-05
2.18262e-05
2.17773e-05
2.18262e-05
2.17773e-05
2.18018e-05
2.17773e-05
2.18262e-05
2.17773e-05
2.18262e-05
2.17773e-05
2.18262e-05
2.17529e-05
2.18262e-05
2.17773e-05
2.18262e-05
2.17773e-05
2.18018e-05
2.17773e-05
2.18262e-05
2.17773e-05
2.18262e-05
2.18018e-05
2.18506e-05
2.18018e-05
2.18506e-05
2.18262e-05
2.1875e-05
2.18262e-05
2.1875e-05
2.18262e-05
2.1875e-05
2.18506e-05
2.1875e-05
2.18506e-05
2.18994e-05
2.18506e-05
2.18994e-05
2.1875e-05
2.18994e-05
2.18506e-05
2.19238e-05
2.1875e-05
2.19238e-05
2.1875e-05
2.19238e-05
2.1875e-05
2.19238e-05
2.1875e-05
2.19238e-05
2.1875e-05
2.19238e-05
2.1875e-05
2.19238e-05
2.18994e-05
2.19238e-05
2.1875e-05
2.19238e-05
2.18994e-05
2.19482e-05
2.1875e-05
2.19238e-05
2.18994e-05
2.19482e-05
2.1875e-05
2.19482e-05
2.18994e-05
2.19482e-05
2.18994e-05
2.19482e-05
2.18994e-05
2.19482e-05
2.18994e-05
2.19482e-05
2.18994e-05
2.19482e-05
2.1875e-05
2.19238e-05
2.18994e-05
2.19482e-05
2.1875e-05
2.19238e-05
2.1875e-05
2.19482e-05
2.1875e-05
2.19238e-05
2.18994e-05
2.19238e-05
2.1875e-05
2.19238e-05
2.1875e-05
2.19238e-05
2.1875e-05
2.19238e-05
2.1875e-05
2.19238e-05
2.1875e-05
2.19238e-05
2.1875e-05
2.18994e-05
2.18506e-05
2.18994e-05
2.1875e-05
2.18994e-05
2.18262e-05
2.1875e-05
2.18506e-05
2.1875e-05
2.18262e-05
2.1875e-05
2.18262e-05
2.18506e-05
2.17773e-05
2.18262e-05
2.17773e-05
2.18018e-05
2.17529e-05
2.17773e-05
2.17529e-05
2.17773e-05
2.17041e-05
2.17529e-05
2.16797e-05
2.17041e-05
2.16309e-05
2.17041e-05
2.16309e-05
2.16553e-05
2.1582e-05
2.16309e-05
2.1582e-05
2.16064e-05
2.15332e-05
2.1582e-05
2.15088e-05
2.15576e-05
2.14844e-05
2.15332e-05
2.14844e-05
2.15088e-05
2.146e-05
2.15088e-05
2.146e-05
2.15088e-05
2.146e-05
2.15088e-05
2.14844e-05
2.15088e-05
2.14844e-05
2.15332e-05
2.15088e-05
2.15576e-05
2.15088e-05
2.15576e-05
2.15332e-05
2.16064e-05
2.15576e-05
2.16309e-05
2.1582e-05
2.16309e-05
2.1582e-05
2.16553e-05
2.16309e-05
2.16797e-05
2.16309e-05
2.16797e-05
2.16553e-05
2.17285e-05
2.16553e-05
2.17285e-05
2.17041e-05
2.17529e-05
2.16797e-05
2.17773e-05
2.17285e-05
2.17773e-05
2.17285e-05
2.18018e-05
2.17773e-05
2.18262e-05
2.17773e-05
2.18506e-05
2.18018e-05
2.1875e-05
2.18262e-05
2.1875e-05
2.18506e-05
2.18994e-05
2.18506e-05
2.18994e-05
2.1875e-05
2.19238e-05
2.1875e-05
2.19482e-05
2.19238e-05
2.19727e-05
2.19238e-05
2.19727e-05
2.19482e-05
2.20215e-05
2.19727e-05
2.19971e-05
2.19971e-05
2.20459e-05
2.20215e-05
2.20703e-05
2.20459e-05
2.20947e-05
2.20459e-05
2.20947e-05
2.20703e-05
2.21191e-05
2.20703e-05
2.21436e-05
2.21191e-05
2.2168e-05
2.21191e-05
2.21924e-05
2.2168e-05
2.22168e-05
2.2168e-05
2.22168e-05
2.21924e-05
2.22412e-05
2.22168e-05
2.22412e-05
2.22412e-05
2.22656e-05
2.22168e-05
2.229e-05
2.22656e-05
2.23145e-05
2.22656e-05
2.23145e-05
2.229e-05
2.23389e-05
2.229e-05
2.23389e-05
2.23145e-05
2.23633e-05
2.23145e-05
2.23633e-05
2.23633e-05
2.23877e-05
2.23633e-05
2.24121e-05
2.24121e-05
2.24365e-05
2.24121e-05
2.24609e-05
2.24365e-05
2.24609e-05
2.24365e-05
2.24854e-05
2.24609e-05
2.25098e-05
2.24609e-05
2.25342e-05
2.25098e-05
2.25342e-05
2.25098e-05
2.25586e-05
2.25342e-05
2.2583e-05
2.25342e-05
2.26074e-05
2.2583e-05
2.26074e-05
2.2583e-05
2.26318e-05
2.26074e-05
2.26562e-05
2.26074e-05
2.26562e-05
2.26318e-05
2.26807e-05
2.26318e-05
2.27051e-05
2.26807e-05
2.27051e-05
2.26562e-05
2.27295e-05
2.27051e-05
2.27295e-05
2.27051e-05
2.27539e-05
2.27295e-05
2.27783e-05
2.27539e-05
2.28027e-05
2.27783e-05
2.28027e-05
2.27783e-05
2.28271e-05
2.28027e-05
2.28271e-05
2.28027e-05
2.28516e-05
2.28271e-05
2.28516e-05
2.28271e-05
2.2876e-05
2.28516e-05
2.29004e-05
2.28516e-05
2.29004e-05
2.2876e-05
2.29004e-05
2.2876e-05
2.29248e-05
2.29004e-05
2.29492e-05
2.2876e-05
2.29248e-05
2.29248e-05
2.29492e-05
2.29004e-05
2.29492e-05
2.29492e-05
2.29736e-05
2.29248e-05
2.29736e-05
2.29492e-05
2.29736e-05
2.29248e-05
2.29492e-05
2.29492e-05
2.29736e-05
2.29492e-05
2.29736e-05
2.29492e-05
2.29736e-05
2.29492e-05
2.29736e-05
2.29492e-05
2.29736e-05
2.29248e-05
2.29736e-05
2.29492e-05
2.29736e-05
2.29248e-05
2.29492e-05
2.29492e-05
2.29492e-05
2.29004e-05
2.29492e-05
2.29248e-05
2.29492e-05
2.29004e-05
2.29492e-05
2.29248e-05
2.29492e-05
2.29004e-05
2.29248e-05
2.29004e-05
2.29248e-05
2.2876e-05
2.29248e-05
2.2876e-05
2.29248e-05
2.2876e-05
2.29004e-05
2.2876e-05
2.29004e-05
2.28516e-05
2.2876e-05
2.2876e-05
2.2876e-05
2.28516e-05
2.2876e-05
2.28516e-05
2.2876e-05
2.28271e-05
2.28516e-05
2.28516e-05
2.28516e-05
2.28027e-05
2.28271e-05
2.28271e-05
2.28271e-05
2.28027e-05
2.28271e-05
2.28027e-05
2.28271e-05
2.27539e-05
2.28027e-05
2.27783e-05
2.27783e-05
2.27295e-05
2.27783e-05
2.27295e-05
2.27539e-05
2.27051e-05
2.27295e-05
2.27295e-05
2.27295e-05
2.27051e-05
2.27051e-05
2.26807e-05
2.27051e-05
2.26562e-05
2.26807e-05
2.26562e-05
2.26807e-05
2.26318e-05
2.26562e-05
2.26318e-05
2.26562e-05
2.26074e-05
2.26318e-05
2.26074e-05
2.26318e-05
2.2583e-05
2.26074e-05
2.2583e-05
2.26074e-05
2.25586e-05
2.2583e-05
2.25586e-05
2.25586e-05
2.25342e-05
2.25586e-05
2.25098e-05
2.25342e-05
2.24854e-05
2.25098e-05
2.24854e-05
2.25098e-05
2.24609e-05
2.24854e-05
2.24609e-05
2.24609e-05
2.24121e-05
2.24609e-05
2.24365e-05
2.24609e-05
2.23877e-05
2.24121e-05
2.23877e-05
2.24121e-05
2.23389e-05
2.23633e-05
2.23633e-05
2.23633e-05
2.23633e-05
2.23633e-05
2.23389e-05
2.23389e-05
2.229e-05
2.23145e-05
2.229e-05
2.23145e-05
2.22656e-05
2.229e-05
2.22656e-05
2.22656e-05
2.22168e-05
2.22412e-05
2.22412e-05
2.22412e-05
2.21924e-05
2.22168e-05
2.21924e-05
2.22168e-05
2.2168e-05
2.21924e-05
2.2168e-05
2.21924e-05
2.21436e-05
2.2168e-05
2.21436e-05
2.21436e-05
2.21191e-05
2.21436e-05
2.21191e-05
2.21436e-05
2.20947e-05
2.21191e-05
2.20947e-05
2.20947e-05
2.20703e-05
2.20703e-05
2.20703e-05
2.20947e-05
2.20459e-05
2.20703e-05
2.20703e-05
2.20459e-05
2.20215e-05
2.20459e-05
2.20459e-05
2.20459e-05
2.20215e-05
2.20459e-05
2.20459e-05
2.20459e-05
2.20215e-05
2.20459e-05
2.20459e-05
2.20459e-05
2.20215e-05
2.20459e-05
2.20459e-05
2.20459e-05
2.20215e-05
2.19971e-05
2.19971e-05
2.20215e-05
2.20215e-05
2.20215e-05
2.19971e-05
2.20215e-05
2.19971e-05
2.19971e-05
2.19727e-05
2.19971e-05
2.19971e-05
2.19727e-05
2.19727e-05
2.19482e-05
2.19727e-05
2.19727e-05
2.19727e-05
2.19482e-05
2.19727e-05
2.19482e-05
2.19727e-05
2.19482e-05
2.19482e-05
2.19482e-05
2.19482e-05
2.19238e-05
2.19482e-05
2.19482e-05
2.19482e-05
2.19238e-05
2.19482e-05
2.19482e-05
2.19238e-05
2.18994e-05
2.19238e-05
2.19238e-05
2.19238e-05
2.18994e-05
2.19238e-05
2.19238e-05
2.19238e-05
2.18994e-05
2.18994e-05
2.19238e-05
2.19238e-05
2.18994e-05
2.18994e-05
2.18994e-05
2.18994e-05
2.1875e-05
2.18994e-05
2.19238e-05
2.18994e-05
2.19238e-05
2.19238e-05
2.19482e-05
2.19482e-05
2.19238e-05
2.19482e-05
2.19482e-05
2.19727e-05
2.19482e-05
2.19482e-05
2.19727e-05
2.19727e-05
2.19482e-05
2.19482e-05
2.19727e-05
2.19727e-05
2.19482e-05
2.19727e-05
2.19727e-05
2.19727e-05
2.19482e-05
2.19727e-05
2.19727e-05
2.19482e-05
2.19482e-05
2.19727e-05
2.19482e-05
2.19727e-05
2.19482e-05
2.19482e-05
2.19482e-05
2.19482e-05
2.19238e-05
2.19482e-05
2.19482e-05
2.19482e-05
2.19238e-05
2.19482e-05
2.19482e-05
2.19482e-05
2.19482e-05
2.19482e-05
2.19482e-05
2.19482e-05
2.19238e-05
2.19482e-05
2.19482e-05
2.19482e-05
2.19238e-05
2.19482e-05
2.19482e-05
2.19482e-05
2.19238e-05
2.19482e-05
2.19482e-05
2.19482e-05
2.19482e-05
2.19482e-05
2.19482e-05
2.19482e-05
2.19482e-05
2.19238e-05
2.19482e-05
2.19482e-05
2.19482e-05
2.19238e-05
2.19238e-05
2.19482e-05
2.19482e-05
2.19482e-05
2.19482e-05
2.19482e-05
2.19482e-05
2.19238e-05
2.19238e-05
2.19482e-05
2.19238e-05
2.19238e-05
2.19238e-05
2.19482e-05
2.19238e-05
2.18994e-05
2.19238e-05
2.19238e-05
2.19238e-05
2.18994e-05
2.19238e-05
2.19238e-05
2.19238e-05
2.18994e-05
2.19238e-05
2.19238e-05
2.18994e-05
2.18994e-05
2.18994e-05
2.19238e-05
2.19238e-05
2.18994e-05
2.19238e-05
2.19238e-05
2.19238e-05
2.18994e-05
2.18994e-05
2.19238e-05
2.19238e-05
2.19482e-05
2.19238e-05
2.19482e-05
2.19238e-05
2.18994e-05
2.19238e-05
2.19482e-05
2.19238e-05
2.18994e-05
2.19238e-05
2.19238e-05
2.19238e-05
2.19238e-05
2.19238e-05
2.19238e-05
2.19238e-05
2.19238e-05
2.19238e-05
2.19482e-05
2.19238e-05
2.18994e-05
2.18994e-05
2.19238e-05
2.18994e-05
2.19238e-05
2.18994e-05
2.19238e-05
2.18994e-05
2.18994e-05
2.18994e-05
2.19238e-05
2.18994e-05
2.18994e-05
2.18994e-05
2.18994e-05
2.18994e-05
2.1875e-05
2.18994e-05
2.18994e-05
2.1875e-05
2.1875e-05
2.1875e-05
2.18994e-05
2.1875e-05
2.1875e-05
2.1875e-05
2.1875e-05
2.1875e-05
2.1875e-05
2.1875e-05
2.18994e-05
2.1875e-05
2.18506e-05
2.1875e-05
2.1875e-05
2.1875e-05
2.18506e-05
2.1875e-05
2.1875e-05
2.1875e-05
2.18506e-05
2.1875e-05
2.1875e-05
2.1875e-05
2.1875e-05
2.18994e-05
2.18994e-05
2.18994e-05
2.1875e-05
2.18994e-05
2.18994e-05
2.19238e-05
2.18994e-05
2.19238e-05
2.19482e-05
2.19238e-05
2.19238e-05
2.19482e-05
2.19727e-05
2.19727e-05
2.19727e-05
2.19482e-05
2.19971e-05
2.19971e-05
2.20215e-05
2.20215e-05
2.20459e-05
2.20459e-05
2.20459e-05
2.20703e-05
2.20703e-05
2.20947e-05
2.20703e-05
2.21191e-05
2.21436e-05
2.21436e-05
2.21191e-05
2.2168e-05
2.2168e-05
2.2168e-05
2.2168e-05
2.22168e-05
2.22168e-05
2.22168e-05
2.22168e-05
2.22412e-05
2.22656e-05
2.22656e-05
2.22412e-05
2.229e-05
2.229e-05
2.23145e-05
2.229e-05
2.23389e-05
2.23389e-05
2.23633e-05
2.23389e-05
2.23877e-05
2.23877e-05
2.23877e-05
2.23633e-05
2.24121e-05
2.24121e-05
2.24365e-05
2.24121e-05
2.24609e-05
2.24609e-05
2.24609e-05
2.24365e-05
2.24854e-05
2.24854e-05
2.24854e-05
2.24854e-05
2.25098e-05
2.25098e-05
2.25098e-05
2.24854e-05
2.25342e-05
2.25342e-05
2.25586e-05
2.25098e-05
2.25098e-05
2.25342e-05
2.25586e-05
2.25586e-05
2.25586e-05
2.25586e-05
2.2583e-05
2.25586e-05
2.2583e-05
2.2583e-05
2.26074e-05
2.25586e-05
2.2583e-05
2.26074e-05
2.26074e-05
2.2583e-05
2.26074e-05
2.26074e-05
2.26318e-05
2.2583e-05
2.26318e-05
2.26318e-05
2.26318e-05
2.26074e-05
2.26318e-05
2.26318e-05
2.26562e-05
2.26318e-05
2.26807e-05
2.26562e-05
2.26807e-05
2.26562e-05
2.26807e-05
2.26807e-05
2.27051e-05
2.26807e-05
2.27295e-05
2.27295e-05
2.27295e-05
2.27051e-05
2.27539e-05
2.27539e-05
2.27539e-05
2.27295e-05
2.27783e-05
2.27783e-05
2.27783e-05
2.27539e-05
2.28027e-05
2.28027e-05
2.28271e-05
2.28271e-05
2.28516e-05
2.28516e-05
2.2876e-05
2.28516e-05
2.2876e-05
2.2876e-05
2.29004e-05
2.2876e-05
2.29248e-05
2.29248e-05
2.29492e-05
2.29248e-05
2.29492e-05
2.29492e-05
2.2998e-05
2.29492e-05
2.2998e-05
2.2998e-05
2.30225e-05
2.2998e-05
2.30225e-05
2.30225e-05
2.30469e-05
2.30225e-05
2.30469e-05
2.30469e-05
2.30469e-05
2.30713e-05
2.30957e-05
2.30713e-05
2.30957e-05
2.30713e-05
2.30957e-05
2.30957e-05
2.31201e-05
2.30713e-05
2.31201e-05
2.31201e-05
2.31445e-05
2.30957e-05
2.31445e-05
2.31201e-05
2.31689e-05
2.30957e-05
2.31689e-05
2.31201e-05
2.31689e-05
2.31201e-05
2.31445e-05
2.31445e-05
2.31689e-05
2.31201e-05
2.31689e-05
2.31689e-05
2.31689e-05
2.31201e-05
2.31689e-05
2.31689e-05
2.31689e-05
2.31201e-05
2.31689e-05
2.31445e-05
2.31445e-05
2.31201e-05
2.31445e-05
2.31201e-05
2.31445e-05
2.30957e-05
2.31201e-05
2.31201e-05
2.31201e-05
2.30713e-05
2.30957e-05
2.30957e-05
2.30957e-05
2.30469e-05
2.30713e-05
2.30225e-05
2.30713e-05
2.2998e-05
2.30469e-05
2.2998e-05
2.30469e-05
2.29492e-05
2.2998e-05
2.29736e-05
2.29736e-05
2.29492e-05
2.29492e-05
2.29248e-05
2.29248e-05
2.29004e-05
2.29004e-05
2.29004e-05
2.29004e-05
2.28516e-05
2.2876e-05
2.2876e-05
2.28516e-05
2.28271e-05
2.28516e-05
2.28271e-05
2.28271e-05
2.27783e-05
2.28027e-05
2.28027e-05
2.28027e-05
2.27295e-05
2.27783e-05
2.27539e-05
2.27539e-05
2.27051e-05
2.27295e-05
2.27295e-05
2.27295e-05
2.26562e-05
2.26807e-05
2.26807e-05
2.26807e-05
2.26318e-05
2.26562e-05
2.26318e-05
2.26318e-05
2.2583e-05
2.26074e-05
2.2583e-05
2.2583e-05
2.25586e-05
2.25586e-05
2.25586e-05
2.25342e-05
2.25098e-05
2.25098e-05
2.25098e-05
2.25098e-05
2.24609e-05
2.24609e-05
2.24609e-05
2.24609e-05
2.24365e-05
2.24365e-05
2.24121e-05
2.24121e-05
2.23633e-05
2.23877e-05
2.23633e-05
2.23633e-05
2.23389e-05
2.23389e-05
2.23389e-05
2.23389e-05
2.229e-05
2.23145e-05
2.23145e-05
2.229e-05
2.22656e-05
2.22656e-05
2.22656e-05
2.22656e-05
2.22412e-05
2.22412e-05
2.22656e-05
2.22412e-05
2.22168e-05
2.22412e-05
2.22168e-05
2.22168e-05
2.21924e-05
2.22168e-05
2.22168e-05
2.21924e-05
2.2168e-05
2.2168e-05
2.2168e-05
2.2168e-05
2.21191e-05
2.21436e-05
2.21436e-05
2.21436e-05
2.20947e-05
2.21191e-05
2.21191e-05
2.20947e-05
2.20703e-05
2.20703e-05
2.20703e-05
2.20703e-05
2.20459e-05
2.20459e-05
2.20459e-05
2.20459e-05
2.20215e-05
2.20459e-05
2.20215e-05
2.20459e-05
2.19971e-05
2.20215e-05
2.19971e-05
2.20215e-05
2.19727e-05
2.19971e-05
2.19971e-05
2.19971e-05
2.19482e-05
2.19971e-05
2.19727e-05
2.19727e-05
2.19482e-05
2.19727e-05
2.19727e-05
2.19482e-05
2.19482e-05
2.19482e-05
2.19482e-05
2.19482e-05
2.19238e-05
2.19482e-05
2.19482e-05
2.19482e-05
2.19238e-05
2.19482e-05
2.19482e-05
2.19482e-05
2.19238e-05
2.19238e-05
2.19238e-05
2.19238e-05
2.18994e-05
2.19238e-05
2.19238e-05
2.19238e-05
2.1875e-05
2.18994e-05
2.18994e-05
2.18994e-05
2.1875e-05
2.18994e-05
2.18994e-05
2.18994e-05
2.1875e-05
2.1875e-05
2.1875e-05
2.1875e-05
2.18506e-05
2.1875e-05
2.1875e-05
2.1875e-05
2.18506e-05
2.1875e-05
2.1875e-05
2.1875e-05
2.1875e-05
2.18506e-05
2.1875e-05
2.18506e-05
2.18262e-05
2.18506e-05
2.18506e-05
2.1875e-05
2.1875e-05
2.18506e-05
2.18506e-05
2.18506e-05
2.18262e-05
2.18506e-05
2.18262e-05
2.18506e-05
2.18018e-05
2.18506e-05
2.18262e-05
2.18506e-05
2.17773e-05
2.18262e-05
2.18262e-05
2.18262e-05
2.17773e-05
2.18018e-05
2.18262e-05
2.18018e-05
2.18018e-05
2.18018e-05
2.18262e-05
2.18018e-05
2.18018e-05
2.18018e-05
2.18018e-05
2.18018e-05
2.17773e-05
2.17773e-05
2.18018e-05
2.17773e-05
2.17773e-05
2.17773e-05
2.18018e-05
2.17773e-05
2.17773e-05
2.17773e-05
2.17773e-05
2.17529e-05
2.17529e-05
2.17773e-05
2.17773e-05
2.17773e-05
2.17773e-05
2.17773e-05
2.18018e-05
2.17773e-05
2.18018e-05
2.18018e-05
2.18262e-05
2.18262e-05
2.18262e-05
2.18262e-05
2.1875e-05
2.18506e-05
2.1875e-05
2.18506e-05
2.1875e-05
2.1875e-05
2.1875e-05
2.1875e-05
2.18994e-05
2.1875e-05
2.18994e-05
2.1875e-05
2.19238e-05
2.18994e-05
2.18994e-05
2.18994e-05
2.19238e-05
2.18994e-05
2.19238e-05
2.19238e-05
2.19238e-05
2.19482e-05
2.19238e-05
2.19482e-05
2.19482e-05
2.19482e-05
2.19482e-05
2.19482e-05
2.19482e-05
2.19482e-05
2.19238e-05
2.19482e-05
2.19482e-05
2.19482e-05
2.19238e-05
2.19482e-05
2.19482e-05
2.19482e-05
2.19238e-05
2.19238e-05
2.19482e-05
2.19238e-05
2.19238e-05
2.19238e-05
2.19482e-05
2.19238e-05
2.18994e-05
2.19238e-05
2.19238e-05
2.19238e-05
2.18994e-05
2.19238e-05
2.19238e-05
2.18994e-05
2.19238e-05
2.18994e-05
2.19238e-05
2.18994e-05
2.18994e-05
2.18994e-05
2.18994e-05
2.18994e-05
2.18994e-05
2.1875e-05
2.19238e-05
2.18994e-05
2.18994e-05
2.18994e-05
2.18994e-05
2.18994e-05
2.18994e-05
2.18994e-05
2.18994e-05
2.18994e-05
2.18994e-05
2.18994e-05
2.18994e-05
2.18994e-05
2.18994e-05
2.18994e-05
2.19238e-05
2.18994e-05
2.18994e-05
2.18994e-05
2.19238e-05
2.19238e-05
2.19238e-05
2.19238e-05
2.19238e-05
2.19238e-05
2.19238e-05
2.19482e-05
2.19482e-05
2.19482e-05
2.19482e-05
2.19482e-05
2.19727e-05
2.19482e-05
2.19727e-05
2.19727e-05
2.19971e-05
2.19727e-05
2.19727e-05
2.19971e-05
2.20215e-05
2.19971e-05
2.19971e-05
2.20215e-05
2.20459e-05
2.20215e-05
2.20215e-05
2.20459e-05
2.20459e-05
2.20459e-05
2.20459e-05
2.20703e-05
2.20703e-05
2.20703e-05
2.20703e-05
2.20947e-05
2.21191e-05
2.21191e-05
2.21191e-05
2.21191e-05
2.21436e-05
2.21436e-05
2.2168e-05
2.2168e-05
2.22168e-05
2.21924e-05
2.22168e-05
2.22412e-05
2.22412e-05
2.22412e-05
2.22656e-05
2.229e-05
2.23145e-05
2.229e-05
2.23145e-05
2.23145e-05
2.23389e-05
2.23389e-05
2.23389e-05
2.23389e-05
2.23877e-05
2.23633e-05
2.23633e-05
2.23633e-05
2.24121e-05
2.23877e-05
2.23877e-05
2.23633e-05
2.24121e-05
2.24121e-05
2.24365e-05
2.24365e-05
2.24609e-05
2.24365e-05
2.24365e-05
2.24365e-05
2.24609e-05
2.24609e-05
2.24609e-05
2.24609e-05
2.24854e-05
2.24609e-05
2.24609e-05
2.24609e-05
2.25342e-05
2.24854e-05
2.24854e-05
2.24854e-05
2.25098e-05
2.24854e-05
2.25098e-05
2.25098e-05
2.25586e-05
2.25342e-05
2.25098e-05
2.25342e-05
2.25586e-05
2.25342e-05
2.25342e-05
2.25342e-05
2.25586e-05
2.25342e-05
2.25342e-05
2.25342e-05
2.25586e-05
2.25342e-05
2.25586e-05
2.25586e-05
2.2583e-05
2.25586e-05
2.25586e-05
2.25586e-05
2.2583e-05
2.25586e-05
2.25586e-05
2.25586e-05
2.26074e-05
2.25586e-05
2.2583e-05
2.25586e-05
2.26074e-05
2.25586e-05
2.25586e-05
2.25586e-05
2.2583e-05
2.25342e-05
2.25586e-05
2.25586e-05
2.2583e-05
2.25586e-05
2.25586e-05
2.25342e-05
2.2583e-05
2.25342e-05
2.25586e-05
2.25342e-05
2.25586e-05
2.25342e-05
2.25586e-05
2.25342e-05
2.25586e-05
2.25342e-05
2.25342e-05
2.25342e-05
2.25586e-05
2.25342e-05
2.25342e-05
2.25098e-05
2.25342e-05
2.25098e-05
2.25098e-05
2.25098e-05
2.25342e-05
2.24854e-05
2.24854e-05
2.24854e-05
2.25098e-05
2.24609e-05
2.24609e-05
2.24609e-05
2.24854e-05
2.24609e-05
2.24609e-05
2.24365e-05
2.24609e-05
2.24609e-05
2.24609e-05
2.24609e-05
2.24854e-05
2.24609e-05
2.24854e-05
2.24854e-05
2.25342e-05
2.25098e-05
2.25098e-05
2.25098e-05
2.25586e-05
2.25342e-05
2.25342e-05
2.25098e-05
2.25586e-05
2.25342e-05
2.25342e-05
2.25342e-05
2.25586e-05
2.25342e-05
2.25342e-05
2.25098e-05
2.25586e-05
2.25098e-05
2.25098e-05
2.25098e-05
2.25342e-05
2.25098e-05
2.25098e-05
2.24854e-05
2.25342e-05
2.24854e-05
2.25098e-05
2.24854e-05
2.25098e-05
2.24854e-05
2.24854e-05
2.24609e-05
2.25098e-05
2.24609e-05
2.24609e-05
2.24609e-05
2.24854e-05
2.24365e-05
2.24609e-05
2.24365e-05
2.24609e-05
2.24121e-05
2.24121e-05
2.23633e-05
2.24121e-05
2.23633e-05
2.23633e-05
2.23145e-05
2.23633e-05
2.23145e-05
2.23389e-05
2.229e-05
2.23145e-05
2.22656e-05
2.22656e-05
2.22412e-05
2.22656e-05
2.22412e-05
2.22412e-05
2.22168e-05
2.22412e-05
2.21924e-05
2.22168e-05
2.21924e-05
2.22168e-05
2.2168e-05
2.2168e-05
2.21436e-05
2.2168e-05
2.21436e-05
2.21436e-05
2.21191e-05
2.21436e-05
2.20947e-05
2.20947e-05
2.20703e-05
2.20947e-05
2.20459e-05
2.20459e-05
2.20215e-05
2.20459e-05
2.19971e-05
2.20215e-05
2.19727e-05
2.20215e-05
2.19482e-05
2.19727e-05
2.19482e-05
2.19727e-05
2.19482e-05
2.19482e-05
2.18994e-05
2.19482e-05
2.18994e-05
2.19238e-05
2.18994e-05
2.19238e-05
2.1875e-05
2.18994e-05
2.1875e-05
2.18994e-05
2.1875e-05
2.1875e-05
2.18506e-05
2.18994e-05
2.18506e-05
2.18506e-05
2.18262e-05
2.1875e-05
2.18262e-05
2.1875e-05
2.18262e-05
2.18506e-05
2.18262e-05
2.18262e-05
2.18018e-05
2.18262e-05
2.18018e-05
2.18018e-05
2.17773e-05
2.18018e-05
2.17773e-05
2.17773e-05
2.17529e-05
2.17773e-05
2.17529e-05
2.17529e-05
2.17285e-05
2.17529e-05
2.17041e-05
2.17529e-05
2.17041e-05
2.17285e-05
2.17041e-05
2.17041e-05
2.16797e-05
2.17041e-05
2.16797e-05
2.16797e-05
2.16553e-05
2.16797e-05
2.16553e-05
2.16553e-05
2.16309e-05
2.16797e-05
2.16309e-05
2.16309e-05
2.16064e-05
2.16553e-05
2.16064e-05
2.16064e-05
2.16064e-05
2.16309e-05
2.1582e-05
2.16064e-05
2.1582e-05
2.16064e-05
2.1582e-05
2.1582e-05
2.15576e-05
2.16064e-05
2.15576e-05
2.1582e-05
2.15576e-05
2.1582e-05
2.15576e-05
2.15576e-05
2.15088e-05
2.1582e-05
2.15332e-05
2.1582e-05
2.15332e-05
2.1582e-05
2.15332e-05
2.15332e-05
2.15088e-05
2.15576e-05
2.15088e-05
2.15576e-05
2.15088e-05
2.15332e-05
2.14844e-05
2.15332e-05
2.14844e-05
2.15332e-05
2.146e-05
2.15332e-05
2.14844e-05
2.15088e-05
2.146e-05
2.15088e-05
2.146e-05
2.15088e-05
2.14355e-05
2.15088e-05
2.146e-05
2.15088e-05
2.14355e-05
2.15088e-05
2.146e-05
2.15088e-05
2.14355e-05
2.15088e-05
2.146e-05
2.15088e-05
2.146e-05
2.15332e-05
2.14844e-05
2.15332e-05
2.146e-05
2.15332e-05
2.14844e-05
2.15576e-05
2.15088e-05
2.15576e-05
2.15332e-05
2.1582e-05
2.15332e-05
2.1582e-05
2.15576e-05
2.16064e-05
2.15576e-05
2.16064e-05
2.16064e-05
2.16553e-05
2.16309e-05
2.16553e-05
2.16064e-05
2.17041e-05
2.16553e-05
2.17041e-05
2.16797e-05
2.17285e-05
2.17041e-05
2.17285e-05
2.17041e-05
2.17773e-05
2.17529e-05
2.18018e-05
2.17773e-05
2.18262e-05
2.17773e-05
2.18018e-05
2.18018e-05
2.18506e-05
2.18262e-05
2.18506e-05
2.18506e-05
2.1875e-05
2.1875e-05
2.18994e-05
2.1875e-05
2.19482e-05
2.18994e-05
2.19482e-05
2.19238e-05
2.19971e-05
2.19482e-05
2.19971e-05
2.19727e-05
2.20459e-05
2.19971e-05
2.20459e-05
2.20215e-05
2.20947e-05
2.20459e-05
2.20703e-05
2.20703e-05
2.21191e-05
2.20703e-05
2.21191e-05
2.20947e-05
2.21436e-05
2.20947e-05
2.21436e-05
2.21191e-05
2.21924e-05
2.21436e-05
2.2168e-05
2.21436e-05
2.22168e-05
2.2168e-05
2.21924e-05
2.2168e-05
2.22412e-05
2.21924e-05
2.22168e-05
2.2168e-05
2.22412e-05
2.21924e-05
2.22656e-05
2.22168e-05
2.22656e-05
2.22168e-05
2.22412e-05
2.22168e-05
2.22656e-05
2.22168e-05
2.22656e-05
2.22168e-05
2.22656e-05
2.22168e-05
2.229e-05
2.22412e-05
2.229e-05
2.22168e-05
2.229e-05
2.22412e-05
2.229e-05
2.22168e-05
2.229e-05
2.22168e-05
2.229e-05
2.22168e-05
2.229e-05
2.22412e-05
2.229e-05
2.22168e-05
2.229e-05
2.22412e-05
2.229e-05
2.22168e-05
2.229e-05
2.22412e-05
2.229e-05
2.22168e-05
2.229e-05
2.22412e-05
2.229e-05
2.22168e-05
2.229e-05
2.22168e-05
2.22656e-05
2.22168e-05
2.229e-05
2.22168e-05
2.22656e-05
2.21924e-05
2.22656e-05
2.22168e-05
2.22656e-05
2.22168e-05
2.22412e-05
2.22168e-05
2.22412e-05
2.21924e-05
2.22412e-05
2.21924e-05
2.22412e-05
2.21924e-05
2.22168e-05
2.2168e-05
2.22412e-05
2.2168e-05
2.22412e-05
2.2168e-05
2.22412e-05
2.2168e-05
2.22168e-05
2.2168e-05
2.22168e-05
2.2168e-05
2.21924e-05
2.2168e-05
2.22168e-05
2.21436e-05
2.21924e-05
2.21436e-05
2.21924e-05
2.21191e-05
2.2168e-05
2.21191e-05
2.2168e-05
2.21191e-05
2.21436e-05
2.20947e-05
2.21436e-05
2.20947e-05
2.21191e-05
2.20947e-05
2.21191e-05
2.20459e-05
2.20947e-05
2.20459e-05
2.20947e-05
2.20459e-05
2.20703e-05
2.20215e-05
2.20459e-05
2.19971e-05
2.20459e-05
2.19727e-05
2.20215e-05
2.19482e-05
2.19971e-05
2.19482e-05
2.19971e-05
2.19238e-05
2.19482e-05
2.18994e-05
2.19727e-05
2.18994e-05
2.19238e-05
2.1875e-05
2.19238e-05
2.1875e-05
2.18994e-05
2.18506e-05
2.18994e-05
2.18506e-05
2.1875e-05
2.18018e-05
2.1875e-05
2.18018e-05
2.18506e-05
2.18018e-05
2.18506e-05
2.17773e-05
2.18262e-05
2.17773e-05
2.18262e-05
2.17773e-05
2.18018e-05
2.17773e-05
2.18262e-05
2.17529e-05
2.18018e-05
2.17529e-05
2.18262e-05
2.17529e-05
2.17773e-05
2.17529e-05
2.18018e-05
2.17529e-05
2.18018e-05
2.17529e-05
2.18262e-05
2.17529e-05
2.18018e-05
2.17285e-05
2.18262e-05
2.17285e-05
2.18018e-05
2.17285e-05
2.18018e-05
2.17285e-05
2.17773e-05
2.17285e-05
2.18018e-05
2.17529e-05
2.18018e-05
2.17529e-05
2.18262e-05
2.17529e-05
2.18262e-05
2.17529e-05
2.18506e-05
2.17773e-05
2.18262e-05
2.17773e-05
2.18506e-05
2.17773e-05
2.18262e-05
2.17773e-05
2.18506e-05
2.18018e-05
2.18506e-05
2.17773e-05
2.1875e-05
2.18018e-05
2.18506e-05
2.17773e-05
2.1875e-05
2.18018e-05
2.1875e-05
2.17773e-05
2.1875e-05
2.18018e-05
2.1875e-05
2.17773e-05
2.1875e-05
2.18018e-05
2.1875e-05
2.17773e-05
2.18506e-05
2.17773e-05
2.18506e-05
2.17529e-05
2.18262e-05
2.17529e-05
2.18262e-05
2.17285e-05
2.18262e-05
2.17285e-05
2.18018e-05
2.17041e-05
2.18018e-05
2.17041e-05
2.17773e-05
2.17041e-05
2.17773e-05
2.17041e-05
2.17773e-05
2.16797e-05
2.17773e-05
2.17041e-05
2.17773e-05
2.16797e-05
2.17773e-05
2.16797e-05
2.17529e-05
2.16553e-05
2.17529e-05
2.16797e-05
2.17285e-05
2.16309e-05
2.17285e-05
2.16553e-05
2.17041e-05
2.16064e-05
2.17041e-05
2.16064e-05
2.16797e-05
2.15576e-05
2.16553e-05
2.15576e-05
2.16309e-05
2.15088e-05
2.16064e-05
2.15088e-05
2.1582e-05
2.146e-05
2.15576e-05
2.146e-05
2.15332e-05
2.14111e-05
2.15088e-05
2.14111e-05
2.14844e-05
2.13623e-05
2.146e-05
2.13623e-05
2.14355e-05
2.13135e-05
2.14111e-05
2.13135e-05
2.13867e-05
2.12646e-05
2.13867e-05
2.12646e-05
2.13623e-05
2.12402e-05
2.13379e-05
2.12402e-05
2.13135e-05
2.11914e-05
2.12891e-05
2.11914e-05
2.12891e-05
2.1167e-05
2.12646e-05
2.11914e-05
2.12646e-05
2.1167e-05
2.12891e-05
2.11914e-05
2.12891e-05
2.12158e-05
2.13379e-05
2.12402e-05
2.13379e-05
2.12646e-05
2.13867e-05
2.12891e-05
2.14111e-05
2.13379e-05
2.146e-05
2.13623e-05
2.14844e-05
2.14111e-05
2.15332e-05
2.14355e-05
2.1582e-05
2.14844e-05
2.16064e-05
2.15088e-05
2.16309e-05
2.15576e-05
2.16797e-05
2.15576e-05
2.17041e-05
2.16309e-05
2.17529e-05
2.16553e-05
2.17773e-05
2.16797e-05
2.18018e-05
2.17041e-05
2.18262e-05
2.17285e-05
2.1875e-05
2.17529e-05
2.1875e-05
2.17773e-05
2.18994e-05
2.18018e-05
2.18994e-05
2.18506e-05
2.19727e-05
2.1875e-05
2.19727e-05
2.18994e-05
2.20215e-05
2.19238e-05
2.20215e-05
2.19482e-05
2.20703e-05
2.19727e-05
2.20703e-05
2.19727e-05
2.20947e-05
2.19971e-05
2.20947e-05
2.20215e-05
2.21436e-05
2.20459e-05
2.21436e-05
2.20459e-05
2.2168e-05
2.20459e-05
2.2168e-05
2.20703e-05
2.21924e-05
2.20947e-05
2.21924e-05
2.20947e-05
2.22168e-05
2.21191e-05
2.22168e-05
2.21191e-05
2.22412e-05
2.21436e-05
2.22412e-05
2.2168e-05
2.229e-05
2.2168e-05
2.22656e-05
2.21924e-05
2.23145e-05
2.21924e-05
2.229e-05
2.22168e-05
2.23389e-05
2.22412e-05
2.23389e-05
2.22412e-05
2.23633e-05
2.22412e-05
2.23633e-05
2.22656e-05
2.23877e-05
2.22656e-05
2.23877e-05
2.229e-05
2.24121e-05
2.23145e-05
2.24121e-05
2.23145e-05
2.24365e-05
2.23145e-05
2.24365e-05
2.23145e-05
2.24609e-05
2.23389e-05
2.24365e-05
2.23389e-05
2.24609e-05
2.23633e-05
2.24609e-05
2.23633e-05
2.24854e-05
2.23633e-05
2.24609e-05
2.23877e-05
2.24854e-05
2.23877e-05
2.24854e-05
2.23877e-05
2.25342e-05
2.24121e-05
2.25098e-05
2.24121e-05
2.25342e-05
2.24365e-05
2.25586e-05
2.24365e-05
2.25586e-05
2.24609e-05
2.25586e-05
2.24609e-05
2.2583e-05
2.24854e-05
2.26074e-05
2.24854e-05
2.26074e-05
2.25098e-05
2.26074e-05
2.25098e-05
2.26318e-05
2.25342e-05
2.26318e-05
2.25342e-05
2.26562e-05
2.25342e-05
2.26562e-05
2.25586e-05
2.26562e-05
2.25586e-05
2.26562e-05
2.25586e-05
2.26807e-05
2.25586e-05
2.26807e-05
2.2583e-05
2.26807e-05
2.2583e-05
2.26807e-05
2.26074e-05
2.27051e-05
2.26074e-05
2.27295e-05
2.26074e-05
2.27295e-05
2.2583e-05
2.27295e-05
2.26318e-05
2.27295e-05
2.26074e-05
2.27295e-05
2.26074e-05
2.27295e-05
2.26074e-05
2.27295e-05
2.26074e-05
2.27295e-05
2.26074e-05
2.27295e-05
2.26074e-05
2.27051e-05
2.26074e-05
2.27051e-05
2.2583e-05
2.27051e-05
2.2583e-05
2.26807e-05
2.2583e-05
2.26807e-05
2.25586e-05
2.26807e-05
2.25586e-05
2.26562e-05
2.25342e-05
2.26562e-05
2.25342e-05
2.26318e-05
2.25098e-05
2.26074e-05
2.24854e-05
2.2583e-05
2.24609e-05
2.25586e-05
2.24365e-05
2.25586e-05
2.24121e-05
2.25342e-05
2.23877e-05
2.24854e-05
2.23633e-05
2.24854e-05
2.23145e-05
2.24121e-05
2.229e-05
2.24121e-05
2.22656e-05
2.23877e-05
2.22412e-05
2.23633e-05
2.22168e-05
2.23389e-05
2.21924e-05
2.229e-05
2.2168e-05
2.22656e-05
2.21191e-05
2.22412e-05
2.20947e-05
2.22168e-05
2.20703e-05
2.22168e-05
2.20459e-05
2.21924e-05
2.20459e-05
2.21924e-05
2.20215e-05
2.2168e-05
2.20459e-05
2.2168e-05
2.20459e-05
2.21924e-05
2.20459e-05
2.2168e-05
2.20459e-05
2.2168e-05
2.20459e-05
2.2168e-05
2.20459e-05
2.2168e-05
2.20459e-05
2.21924e-05
2.20215e-05
2.2168e-05
2.20215e-05
2.2168e-05
2.20215e-05
2.2168e-05
2.20215e-05
2.21436e-05
2.20215e-05
2.21436e-05
2.19971e-05
2.21191e-05
2.19971e-05
2.21191e-05
2.19727e-05
2.21191e-05
2.19727e-05
2.21191e-05
2.19727e-05
2.20947e-05
2.19727e-05
2.20947e-05
2.19482e-05
2.20947e-05
2.19482e-05
2.20947e-05
2.19482e-05
2.20703e-05
2.19482e-05
2.20703e-05
2.19482e-05
2.20703e-05
2.19482e-05
2.20703e-05
2.19482e-05
2.20703e-05
2.19482e-05
2.20459e-05
2.19482e-05
2.20703e-05
2.19238e-05
2.20459e-05
2.19238e-05
2.20703e-05
2.18994e-05
2.20459e-05
2.19238e-05
2.20459e-05
2.18994e-05
2.20459e-05
2.18994e-05
2.20459e-05
2.1875e-05
2.20215e-05
2.1875e-05
2.20215e-05
2.18506e-05
2.19971e-05
2.18506e-05
2.19971e-05
2.18262e-05
2.19727e-05
2.18262e-05
2.19482e-05
2.18018e-05
2.19482e-05
2.18018e-05
2.19482e-05
2.17773e-05
2.19238e-05
2.17773e-05
2.19238e-05
2.17529e-05
2.18994e-05
2.17529e-05
2.18994e-05
2.17285e-05
2.1875e-05
2.17285e-05
2.1875e-05
2.17041e-05
2.1875e-05
2.17041e-05
2.18506e-05
2.17041e-05
2.18506e-05
2.17041e-05
2.18262e-05
2.16797e-05
2.18262e-05
2.16797e-05
2.18262e-05
2.16797e-05
2.18262e-05
2.16797e-05
2.18018e-05
2.16797e-05
2.18018e-05
2.16797e-05
2.17773e-05
2.16309e-05
2.18018e-05
2.16553e-05
2.18018e-05
2.16553e-05
2.17773e-05
2.16553e-05
2.17773e-05
2.16553e-05
2.17773e-05
2.16553e-05
2.17773e-05
2.16553e-05
2.18018e-05
2.16553e-05
2.18018e-05
2.16797e-05
2.18262e-05
2.16797e-05
2.18262e-05
2.17041e-05
2.18506e-05
2.17285e-05
2.1875e-05
2.17529e-05
2.18994e-05
2.17773e-05
2.19238e-05
2.18018e-05
2.19482e-05
2.18262e-05
2.19482e-05
2.18262e-05
2.19971e-05
2.1875e-05
2.20215e-05
2.1875e-05
2.20459e-05
2.19238e-05
2.20459e-05
2.19482e-05
2.20947e-05
2.19727e-05
2.21191e-05
2.19971e-05
2.2168e-05
2.20215e-05
2.2168e-05
2.20459e-05
2.22168e-05
2.20703e-05
2.22168e-05
2.20947e-05
2.22412e-05
2.21191e-05
2.22656e-05
2.21436e-05
2.229e-05
2.2168e-05
2.23145e-05
2.21924e-05
2.23389e-05
2.22168e-05
2.23633e-05
2.22412e-05
2.23877e-05
2.22656e-05
2.24365e-05
2.229e-05
2.24609e-05
2.23145e-05
2.24609e-05
2.23389e-05
2.24854e-05
2.23633e-05
2.25098e-05
2.23877e-05
2.25342e-05
2.23877e-05
2.25586e-05
2.24121e-05
2.25586e-05
2.24121e-05
2.2583e-05
2.24365e-05
2.2583e-05
2.24365e-05
2.26074e-05
2.24365e-05
2.26074e-05
2.24365e-05
2.26074e-05
2.24609e-05
2.26074e-05
2.24609e-05
2.26318e-05
2.24854e-05
2.26318e-05
2.24609e-05
2.26562e-05
2.24854e-05
2.26562e-05
2.24854e-05
2.26562e-05
2.25098e-05
2.26807e-05
2.25342e-05
2.26807e-05
2.25342e-05
2.27051e-05
2.25342e-05
2.27051e-05
2.25586e-05
2.27295e-05
2.25586e-05
2.27295e-05
2.25586e-05
2.27295e-05
2.25586e-05
2.27539e-05
2.2583e-05
2.27783e-05
2.2583e-05
2.27783e-05
2.26318e-05
2.28027e-05
2.26074e-05
2.28027e-05
2.26318e-05
2.28027e-05
2.26318e-05
2.28027e-05
2.26562e-05
2.28027e-05
2.26562e-05
2.28271e-05
2.26562e-05
2.28271e-05
2.26562e-05
2.28271e-05
2.26807e-05
2.28271e-05
2.26562e-05
2.28271e-05
2.26807e-05
2.28271e-05
2.26562e-05
2.28271e-05
2.26562e-05
2.28271e-05
2.26562e-05
2.28271e-05
2.26562e-05
2.28271e-05
2.26318e-05
2.28027e-05
2.26562e-05
2.28027e-05
2.26318e-05
2.27783e-05
2.26318e-05
2.27783e-05
2.26074e-05
2.27783e-05
2.26074e-05
2.27539e-05
2.26074e-05
2.27539e-05
2.26074e-05
2.27295e-05
2.25586e-05
2.27295e-05
2.2583e-05
2.27295e-05
2.25586e-05
2.27051e-05
2.25342e-05
2.27051e-05
2.25342e-05
2.26807e-05
2.25342e-05
2.26562e-05
2.24854e-05
2.26562e-05
2.24854e-05
2.26318e-05
2.24609e-05
2.26318e-05
2.24609e-05
2.26074e-05
2.24609e-05
2.2583e-05
2.24365e-05
2.2583e-05
2.24365e-05
2.25342e-05
2.24121e-05
2.25342e-05
2.24121e-05
2.24854e-05
2.24121e-05
2.25098e-05
2.23877e-05
2.24854e-05
2.23877e-05
2.24609e-05
2.23633e-05
2.24365e-05
2.23633e-05
2.24365e-05
2.23389e-05
2.24121e-05
2.23389e-05
2.24121e-05
2.23389e-05
2.23633e-05
2.23145e-05
2.23633e-05
2.229e-05
2.23633e-05
2.229e-05
2.23633e-05
2.22656e-05
2.23389e-05
2.22656e-05
2.23389e-05
2.22412e-05
2.23145e-05
2.22412e-05
2.23145e-05
2.22168e-05
2.229e-05
2.21924e-05
2.229e-05
2.21924e-05
2.22656e-05
2.2168e-05
2.22656e-05
2.2168e-05
2.22412e-05
2.21436e-05
2.22412e-05
2.21436e-05
2.22168e-05
2.21436e-05
2.22168e-05
2.21436e-05
2.21924e-05
2.21191e-05
2.21924e-05
2.21191e-05
2.21924e-05
2.20947e-05
2.2168e-05
2.20947e-05
2.2168e-05
2.20703e-05
2.2168e-05
2.20947e-05
2.21436e-05
2.20703e-05
2.21436e-05
2.20703e-05
2.21191e-05
2.20703e-05
2.21436e-05
2.20703e-05
2.21191e-05
2.20459e-05
2.21191e-05
2.20459e-05
2.21191e-05
2.20459e-05
2.20703e-05
2.20947e-05
2.20703e-05
2.20947e-05
2.20947e-05
2.20947e-05
2.20703e-05
2.20947e-05
2.20947e-05
2.21191e-05
2.20703e-05
2.21436e-05
2.20947e-05
2.2168e-05
2.20703e-05
2.2168e-05
2.20947e-05
2.21924e-05
2.21191e-05
2.21924e-05
2.21191e-05
2.21924e-05
2.21436e-05
2.22168e-05
2.21436e-05
2.22412e-05
2.2168e-05
2.22656e-05
2.21924e-05
2.22656e-05
2.22168e-05
2.229e-05
2.22412e-05
2.229e-05
2.22412e-05
2.23389e-05
2.22656e-05
2.23389e-05
2.229e-05
2.23633e-05
2.23145e-05
2.23877e-05
2.23389e-05
2.24121e-05
2.23389e-05
2.24365e-05
2.23633e-05
2.24609e-05
2.23877e-05
2.24854e-05
2.24365e-05
2.25098e-05
2.24365e-05
2.25342e-05
2.24609e-05
2.25342e-05
2.24854e-05
2.2583e-05
2.25098e-05
2.26074e-05
2.25342e-05
2.26074e-05
2.25586e-05
2.26318e-05
2.2583e-05
2.26562e-05
2.26074e-05
2.26807e-05
2.26318e-05
2.26807e-05
2.26318e-05
2.27051e-05
2.26562e-05
2.27295e-05
2.26807e-05
2.27539e-05
2.26807e-05
2.27783e-05
2.26807e-05
2.28027e-05
2.26807e-05
2.28027e-05
2.26807e-05
2.28027e-05
2.26807e-05
2.28027e-05
2.27051e-05
2.28271e-05
2.27051e-05
2.28271e-05
2.27051e-05
2.28271e-05
2.27295e-05
2.28516e-05
2.27539e-05
2.28516e-05
2.27539e-05
2.28516e-05
2.27539e-05
2.2876e-05
2.27783e-05
2.2876e-05
2.27783e-05
2.2876e-05
2.27783e-05
2.2876e-05
2.27783e-05
2.2876e-05
2.27783e-05
2.28516e-05
2.27783e-05
2.28516e-05
2.27783e-05
2.28516e-05
2.27783e-05
2.28516e-05
2.27783e-05
2.28271e-05
2.27783e-05
2.28516e-05
2.27539e-05
2.28271e-05
2.27539e-05
2.28516e-05
2.27539e-05
2.28271e-05
2.27539e-05
2.28271e-05
2.27295e-05
2.28271e-05
2.27295e-05
2.28271e-05
2.27295e-05
2.28027e-05
2.27295e-05
2.28027e-05
2.27295e-05
2.28027e-05
2.27051e-05
2.27783e-05
2.27051e-05
2.27783e-05
2.27051e-05
2.27783e-05
2.27051e-05
2.27783e-05
2.26807e-05
2.27783e-05
2.26807e-05
2.27783e-05
2.26807e-05
2.27539e-05
2.26807e-05
2.27539e-05
2.26807e-05
2.27539e-05
2.26807e-05
2.27539e-05
2.26807e-05
2.27539e-05
2.26807e-05
2.27539e-05
2.26807e-05
2.27539e-05
2.26807e-05
2.27295e-05
2.26807e-05
2.27539e-05
2.26807e-05
2.27539e-05
2.26562e-05
2.27539e-05
2.26562e-05
2.27539e-05
2.26318e-05
2.27539e-05
2.26562e-05
2.27539e-05
2.26562e-05
2.27539e-05
2.26562e-05
2.27539e-05
2.26318e-05
2.27539e-05
2.26562e-05
2.27539e-05
2.26318e-05
2.27539e-05
2.26318e-05
2.27295e-05
2.26318e-05
2.27295e-05
2.26318e-05
2.27295e-05
2.26318e-05
2.27295e-05
2.26318e-05
2.27295e-05
2.26074e-05
2.27295e-05
2.26318e-05
2.27295e-05
2.26074e-05
2.27295e-05
2.26074e-05
2.27295e-05
2.26074e-05
2.27051e-05
2.26074e-05
2.27051e-05
2.26074e-05
2.27051e-05
2.26074e-05
2.27051e-05
2.2583e-05
2.27051e-05
2.2583e-05
2.26807e-05
2.2583e-05
2.26807e-05
2.2583e-05
2.26562e-05
2.25586e-05
2.26562e-05
2.25586e-05
2.26562e-05
2.25342e-05
2.26562e-05
2.25586e-05
2.26562e-05
2.25342e-05
2.26318e-05
2.25342e-05
2.26318e-05
2.25098e-05
2.26318e-05
2.25098e-05
2.26318e-05
2.24854e-05
2.26074e-05
2.24854e-05
2.2583e-05
2.24609e-05
2.2583e-05
2.24609e-05
2.25586e-05
2.24609e-05
2.25586e-05
2.24609e-05
2.25586e-05
2.24365e-05
2.25342e-05
2.24365e-05
2.25342e-05
2.24121e-05
2.25342e-05
2.24121e-05
2.25098e-05
2.23877e-05
2.24854e-05
2.23877e-05
2.24854e-05
2.23633e-05
2.24854e-05
2.23633e-05
2.24609e-05
2.23633e-05
2.24609e-05
2.23389e-05
2.24609e-05
2.23145e-05
2.24365e-05
2.23389e-05
2.24365e-05
2.23145e-05
2.24121e-05
2.23145e-05
2.24121e-05
2.229e-05
2.23877e-05
2.22656e-05
2.24121e-05
2.22656e-05
2.23877e-05
2.22656e-05
2.23633e-05
2.22656e-05
2.23633e-05
2.22412e-05
2.23633e-05
2.22412e-05
2.23633e-05
2.22412e-05
2.23633e-05
2.22412e-05
2.23633e-05
2.22412e-05
2.23389e-05
2.22412e-05
2.23389e-05
2.22412e-05
2.23633e-05
2.22168e-05
2.23389e-05
2.22168e-05
2.23389e-05
2.22412e-05
2.23389e-05
2.22168e-05
2.23389e-05
2.22168e-05
2.23389e-05
2.22168e-05
2.23389e-05
2.22168e-05
2.23389e-05
2.22168e-05
2.23389e-05
2.22412e-05
2.23633e-05
2.22412e-05
2.23633e-05
2.22412e-05
2.23633e-05
2.22412e-05
2.23633e-05
2.22412e-05
2.23633e-05
2.22412e-05
2.23877e-05
2.22412e-05
2.23877e-05
2.22412e-05
2.23877e-05
2.22656e-05
2.23877e-05
2.22656e-05
2.24121e-05
2.22656e-05
2.24121e-05
2.22656e-05
2.24121e-05
2.229e-05
2.24121e-05
2.229e-05
2.24121e-05
2.229e-05
2.24365e-05
2.229e-05
2.24365e-05
2.229e-05
2.24365e-05
2.229e-05
2.24365e-05
2.23145e-05
2.24609e-05
2.229e-05
2.24609e-05
2.23145e-05
2.24609e-05
2.23145e-05
2.24609e-05
2.23389e-05
2.24609e-05
2.23145e-05
2.24609e-05
2.23389e-05
2.24609e-05
2.23389e-05
2.24609e-05
2.23389e-05
2.24609e-05
2.23145e-05
2.24609e-05
2.23389e-05
2.24609e-05
2.23389e-05
2.24609e-05
2.23389e-05
2.24609e-05
2.23389e-05
2.24609e-05
2.23389e-05
2.24609e-05
2.23389e-05
2.24609e-05
2.23145e-05
2.24609e-05
2.23145e-05
2.24609e-05
2.23389e-05
2.24609e-05
2.23633e-05
2.24365e-05
2.23389e-05
2.24121e-05
2.23389e-05
2.24121e-05
2.23389e-05
2.24121e-05
2.23145e-05
2.24121e-05
2.23389e-05
2.24121e-05
2.23145e-05
2.23877e-05
2.23145e-05
2.23877e-05
2.229e-05
2.23877e-05
2.23145e-05
2.23877e-05
2.229e-05
2.23877e-05
2.229e-05
2.23633e-05
2.229e-05
2.23633e-05
2.23145e-05
2.23877e-05
2.23145e-05
2.23877e-05
2.23389e-05
2.23877e-05
2.23145e-05
2.24121e-05
2.23389e-05
2.23877e-05
2.23145e-05
2.23877e-05
2.23145e-05
2.23877e-05
2.23145e-05
2.23877e-05
2.229e-05
2.23633e-05
2.229e-05
2.23633e-05
2.229e-05
2.23389e-05
2.22656e-05
2.23389e-05
2.22656e-05
2.23389e-05
2.22656e-05
2.23145e-05
2.22412e-05
2.23145e-05
2.22412e-05
2.229e-05
2.22168e-05
2.229e-05
2.22168e-05
2.22656e-05
2.22168e-05
2.22656e-05
2.21924e-05
2.22656e-05
2.21924e-05
2.22412e-05
2.21924e-05
2.22412e-05
2.2168e-05
2.22412e-05
2.2168e-05
2.22168e-05
2.21436e-05
2.22168e-05
2.21436e-05
2.22168e-05
2.21436e-05
2.21924e-05
2.21191e-05
2.21924e-05
2.21191e-05
2.21924e-05
2.21191e-05
2.2168e-05
2.20947e-05
2.2168e-05
2.20947e-05
2.2168e-05
2.20947e-05
2.2168e-05
2.20703e-05
2.21436e-05
2.20703e-05
2.21436e-05
2.20703e-05
2.21436e-05
2.20459e-05
2.21191e-05
2.20459e-05
2.21191e-05
2.20459e-05
2.21191e-05
2.20459e-05
2.21191e-05
2.20459e-05
2.20947e-05
2.20459e-05
2.20459e-05
2.20947e-05
2.20459e-05
2.20947e-05
2.20215e-05
2.20703e-05
2.20215e-05
2.20703e-05
2.20215e-05
2.19727e-05
2.20459e-05
2.19727e-05
2.20459e-05
2.19727e-05
2.20459e-05
2.19727e-05
2.20459e-05
2.19482e-05
2.20459e-05
2.19482e-05
2.20459e-05
2.19727e-05
2.20215e-05
2.19482e-05
2.20215e-05
2.19482e-05
2.20215e-05
2.19482e-05
2.20215e-05
2.19238e-05
2.19971e-05
2.19482e-05
2.19971e-05
2.19238e-05
2.19971e-05
2.19238e-05
2.19727e-05
2.19238e-05
2.19727e-05
2.19238e-05
2.19727e-05
2.18994e-05
2.19727e-05
2.18994e-05
2.19482e-05
2.18994e-05
2.19727e-05
2.1875e-05
2.19482e-05
2.1875e-05
2.19482e-05
2.1875e-05
2.19482e-05
2.1875e-05
2.19482e-05
2.1875e-05
2.19482e-05
2.1875e-05
2.19238e-05
2.18506e-05
2.19238e-05
2.18506e-05
2.19238e-05
2.18506e-05
2.18994e-05
2.18262e-05
2.18994e-05
2.18262e-05
2.18994e-05
2.18262e-05
2.18994e-05
2.18262e-05
2.18994e-05
2.18262e-05
2.1875e-05
2.18262e-05
2.1875e-05
2.18018e-05
2.1875e-05
2.18018e-05
2.1875e-05
2.18018e-05
2.1875e-05
2.18018e-05
2.1875e-05
2.17773e-05
2.1875e-05
2.18018e-05
2.1875e-05
2.17773e-05
2.18506e-05
2.17773e-05
2.18506e-05
2.17773e-05
2.18506e-05
2.17773e-05
2.1875e-05
2.17529e-05
2.1875e-05
2.17529e-05
2.1875e-05
2.17529e-05
2.1875e-05
2.17529e-05
2.1875e-05
2.17285e-05
2.1875e-05
2.17773e-05
2.18506e-05
2.17773e-05
2.18506e-05
2.17529e-05
2.18262e-05
2.17529e-05
2.18262e-05
2.17773e-05
2.18262e-05
2.17529e-05
2.18506e-05
2.17285e-05
2.18506e-05
2.17041e-05
2.18506e-05
2.17285e-05
2.18506e-05
2.17041e-05
2.18506e-05
2.17285e-05
2.18506e-05
2.17041e-05
2.18506e-05
2.17285e-05
2.18262e-05
2.17041e-05
2.18262e-05
2.17041e-05
2.18506e-05
2.17041e-05
2.18262e-05
2.17041e-05
2.18262e-05
2.17041e-05
2.18262e-05
2.17041e-05
2.18262e-05
2.17041e-05
2.18262e-05
2.17041e-05
2.18262e-05
2.16797e-05
2.18262e-05
2.16797e-05
2.18262e-05
2.16797e-05
2.18018e-05
2.17041e-05
2.18262e-05
2.16797e-05
2.18018e-05
2.16797e-05
2.18262e-05
2.16797e-05
2.18018e-05
2.16797e-05
2.18018e-05
2.16797e-05
2.18018e-05
2.16797e-05
2.18018e-05
2.16797e-05
2.18018e-05
2.16797e-05
2.18018e-05
2.16797e-05
2.18018e-05
2.16797e-05
2.18018e-05
2.16553e-05
2.17773e-05
2.16553e-05
2.17773e-05
2.16797e-05
2.17773e-05
2.16797e-05
2.17773e-05
2.16553e-05
2.17773e-05
2.16553e-05
2.17773e-05
2.16553e-05
2.18018e-05
2.16797e-05
2.18018e-05
2.16797e-05
2.18018e-05
2.16797e-05
2.18018e-05
2.16797e-05
2.18018e-05
2.16797e-05
2.18018e-05
2.16797e-05
2.18018e-05
2.16797e-05
2.18018e-05
2.16797e-05
2.18018e-05
2.16797e-05
2.18018e-05
2.16797e-05
2.18018e-05
2.16797e-05
2.18018e-05
2.16797e-05
2.18018e-05
2.16797e-05
2.17773e-05
2.16797e-05
2.17773e-05
2.16553e-05
2.17773e-05
2.16553e-05
2.17773e-05
2.16553e-05
2.17773e-05
2.16553e-05
2.17773e-05
2.16309e-05
2.17773e-05
2.16309e-05
2.17529e-05
2.16309e-05
2.17773e-05
2.16309e-05
2.17773e-05
2.16553e-05
2.17529e-05
2.16309e-05
2.17529e-05
2.16309e-05
2.17529e-05
2.16309e-05
2.17529e-05
2.16309e-05
2.17529e-05
2.16309e-05
2.17529e-05
2.16309e-05
2.17529e-05
2.16309e-05
2.17529e-05
2.16309e-05
2.17529e-05
2.16309e-05
2.17529e-05
2.16309e-05
2.17529e-05
2.16553e-05
2.17529e-05
2.16553e-05
2.17041e-05
2.16553e-05
2.17041e-05
2.16553e-05
2.17285e-05
2.16553e-05
2.17285e-05
2.16553e-05
2.17285e-05
2.16797e-05
2.17285e-05
2.16797e-05
2.17285e-05
2.16797e-05
2.17285e-05
2.16797e-05
2.17285e-05
2.16553e-05
2.17285e-05
2.16553e-05
2.17285e-05
2.16553e-05
2.17285e-05
2.16553e-05
2.17285e-05
2.16553e-05
2.17041e-05
2.16553e-05
2.17041e-05
2.16553e-05
2.17285e-05
2.16553e-05
2.17285e-05
2.16553e-05
2.17041e-05
2.16553e-05
2.17041e-05
2.16553e-05
2.17041e-05
2.16553e-05
2.17041e-05
2.16553e-05
2.17041e-05
2.16553e-05
2.17285e-05
2.16553e-05
2.17041e-05
2.16553e-05
2.17041e-05
2.16553e-05
2.17041e-05
2.16553e-05
2.17041e-05
2.16309e-05
2.17041e-05
2.16553e-05
2.17041e-05
2.16553e-05
2.17041e-05
2.16309e-05
2.17041e-05
2.16309e-05
2.17041e-05
2.16309e-05
2.17041e-05
2.16309e-05
2.17041e-05
2.16309e-05
2.17041e-05
2.16309e-05
2.17041e-05
2.16309e-05
2.17041e-05
2.16309e-05
2.17041e-05
2.16309e-05
2.17041e-05
2.16309e-05
2.17041e-05
2.16309e-05
2.16797e-05
2.16309e-05
2.16797e-05
2.16309e-05
2.17041e-05
2.16309e-05
2.17041e-05
2.16309e-05
2.17041e-05
2.16309e-05
2.16797e-05
2.16309e-05
2.16797e-05
2.16309e-05
2.17041e-05
2.16309e-05
2.16797e-05
2.16309e-05
2.17041e-05
2.16309e-05
2.16797e-05
2.16064e-05
2.16797e-05
2.16309e-05
2.16797e-05
2.16064e-05
2.16797e-05
2.16064e-05
2.16797e-05
2.16064e-05
2.16797e-05
2.16064e-05
2.16797e-05
2.16064e-05
2.16797e-05
2.16064e-05
2.16797e-05
2.16064e-05
2.16797e-05
2.16064e-05
2.16797e-05
2.16064e-05
2.16797e-05
2.16064e-05
2.16797e-05
2.16064e-05
2.16797e-05
2.16064e-05
2.16797e-05
2.16064e-05
2.16797e-05
2.16064e-05
2.16797e-05
2.1582e-05
2.16797e-05
2.1582e-05
2.16797e-05
2.1582e-05
2.16797e-05
2.1582e-05
2.16797e-05
2.16064e-05
2.16797e-05
2.16064e-05
2.16797e-05
2.16064e-05
2.16797e-05
2.16064e-05
2.16797e-05
2.1582e-05
2.16797e-05
2.16064e-05
2.16797e-05
2.16064e-05
2.16797e-05
2.16064e-05
2.16797e-05
2.16309e-05
2.16797e-05
2.16309e-05
2.17041e-05
2.16309e-05
2.17041e-05
2.16309e-05
2.17041e-05
2.16553e-05
2.17285e-05
2.16553e-05
2.17285e-05
2.16797e-05
2.17529e-05
2.16797e-05
2.17285e-05
2.17041e-05
2.17529e-05
2.17041e-05
2.17529e-05
2.17285e-05
2.17529e-05
2.17285e-05
2.17773e-05
2.17529e-05
2.17773e-05
2.17529e-05
2.17773e-05
2.17773e-05
2.18018e-05
2.17773e-05
2.18018e-05
2.17773e-05
2.18262e-05
2.17773e-05
2.18262e-05
2.18018e-05
2.18262e-05
2.18018e-05
2.18262e-05
2.18262e-05
2.18506e-05
2.18262e-05
2.18506e-05
2.18262e-05
2.18506e-05
2.18506e-05
2.1875e-05
2.18506e-05
2.1875e-05
2.18506e-05
2.1875e-05
2.1875e-05
2.18994e-05
2.1875e-05
2.1875e-05
2.1875e-05
2.18994e-05
2.1875e-05
2.18994e-05
2.1875e-05
2.18994e-05
2.18994e-05
2.19238e-05
2.18994e-05
2.19238e-05
2.18994e-05
2.19238e-05
2.19238e-05
2.19482e-05
2.19238e-05
2.19482e-05
2.19238e-05
2.19482e-05
2.19238e-05
2.19482e-05
2.19238e-05
2.19482e-05
2.19238e-05
2.19482e-05
2.19238e-05
2.19482e-05
2.19238e-05
2.19482e-05
2.19238e-05
2.19482e-05
2.19238e-05
2.19482e-05
2.19238e-05
2.19482e-05
2.19238e-05
2.19482e-05
2.19238e-05
2.19482e-05
2.19238e-05
2.19482e-05
2.19238e-05
2.19482e-05
2.19238e-05
2.19482e-05
2.19238e-05
2.19482e-05
2.19238e-05
2.19482e-05
2.19482e-05
2.19482e-05
2.19482e-05
2.19727e-05
2.19482e-05
2.19727e-05
2.19482e-05
2.19727e-05
2.19482e-05
2.19727e-05
2.19727e-05
2.19727e-05
2.19727e-05
2.19971e-05
2.19727e-05
2.19971e-05
2.19727e-05
2.19727e-05
2.19971e-05
2.19971e-05
2.19727e-05
2.20215e-05
2.19971e-05
2.20215e-05
2.19971e-05
2.20215e-05
2.19971e-05
2.20215e-05
2.19971e-05
2.20215e-05
2.19971e-05
2.20215e-05
2.20215e-05
2.20459e-05
2.20215e-05
2.20459e-05
2.20215e-05
2.20459e-05
2.20215e-05
2.20703e-05
2.20459e-05
2.20703e-05
2.20459e-05
2.20703e-05
2.20703e-05
2.20947e-05
2.20703e-05
2.20947e-05
2.20703e-05
2.21191e-05
2.20947e-05
2.21191e-05
2.21191e-05
2.21436e-05
2.21191e-05
2.2168e-05
2.21436e-05
2.2168e-05
2.2168e-05
2.21924e-05
2.2168e-05
2.22168e-05
2.21924e-05
2.22168e-05
2.22168e-05
2.22412e-05
2.22168e-05
2.22412e-05
2.22412e-05
2.22412e-05
2.22412e-05
2.22656e-05
2.22412e-05
2.22656e-05
2.22656e-05
2.229e-05
2.22656e-05
2.229e-05
2.229e-05
2.229e-05
2.229e-05
2.23145e-05
2.229e-05
2.23145e-05
2.23145e-05
2.23145e-05
2.23145e-05
2.23389e-05
2.23145e-05
2.23389e-05
2.23389e-05
2.23389e-05
2.23389e-05
2.23633e-05
2.23389e-05
2.23389e-05
2.23389e-05
2.23633e-05
2.23633e-05
2.23633e-05
2.23633e-05
2.23633e-05
2.23633e-05
2.23633e-05
2.23633e-05
2.23633e-05
2.23633e-05
2.23877e-05
2.23633e-05
2.24121e-05
2.23877e-05
2.24121e-05
2.23877e-05
2.24365e-05
2.24121e-05
2.24365e-05
2.24121e-05
2.24365e-05
2.24121e-05
2.24365e-05
2.24365e-05
2.24609e-05
2.24365e-05
2.24609e-05
2.24365e-05
2.24609e-05
2.24365e-05
2.24609e-05
2.24365e-05
2.24609e-05
2.24365e-05
2.24609e-05
2.24365e-05
2.24609e-05
2.24365e-05
2.24365e-05
2.24121e-05
2.24365e-05
2.24121e-05
2.24365e-05
2.24121e-05
2.24365e-05
2.24121e-05
2.24121e-05
2.23877e-05
2.24121e-05
2.23877e-05
2.24121e-05
2.23877e-05
2.24121e-05
2.23633e-05
2.23877e-05
2.23633e-05
2.23877e-05
2.23389e-05
2.23633e-05
2.23633e-05
2.23633e-05
2.23389e-05
2.23633e-05
2.23389e-05
2.23633e-05
2.23389e-05
2.23389e-05
2.23145e-05
2.23389e-05
2.23145e-05
2.23389e-05
2.23145e-05
2.23389e-05
2.229e-05
2.23145e-05
2.229e-05
2.23145e-05
2.229e-05
2.23145e-05
2.22656e-05
2.229e-05
2.22656e-05
2.229e-05
2.22656e-05
2.22656e-05
2.22412e-05
2.22656e-05
2.22412e-05
2.22656e-05
2.22412e-05
2.22412e-05
2.22412e-05
2.22412e-05
2.22168e-05
2.22412e-05
2.22412e-05
2.22412e-05
2.22168e-05
2.22412e-05
2.22168e-05
2.22412e-05
2.22168e-05
2.22412e-05
2.22168e-05
2.22168e-05
2.22168e-05
2.22168e-05
2.21924e-05
2.22168e-05
2.21924e-05
2.22168e-05
2.21924e-05
2.21924e-05
2.21924e-05
2.21924e-05
2.2168e-05
2.21924e-05
2.2168e-05
2.21924e-05
2.2168e-05
2.21924e-05
2.2168e-05
2.21924e-05
2.21924e-05
2.21924e-05
2.2168e-05
2.22168e-05
2.21924e-05
2.21924e-05
2.2168e-05
2.21924e-05
2.2168e-05
2.21924e-05
2.2168e-05
2.21924e-05
2.2168e-05
2.2168e-05
2.2168e-05
2.2168e-05
2.2168e-05
2.2168e-05
2.21436e-05
2.2168e-05
2.21436e-05
2.21436e-05
2.21436e-05
2.21436e-05
2.21436e-05
2.21436e-05
2.21191e-05
2.21191e-05
2.21191e-05
2.21191e-05
2.21191e-05
2.21191e-05
2.20947e-05
2.21191e-05
2.20947e-05
2.20947e-05
2.20947e-05
2.20947e-05
2.20947e-05
2.20947e-05
2.20947e-05
2.21191e-05
2.20703e-05
2.20947e-05
2.20703e-05
2.20947e-05
2.20703e-05
2.20947e-05
2.20947e-05
2.20947e-05
2.20703e-05
2.21191e-05
2.20947e-05
2.20947e-05
2.20947e-05
2.21191e-05
2.20947e-05
2.21191e-05
2.21191e-05
2.21436e-05
2.21191e-05
2.21436e-05
2.21191e-05
2.2168e-05
2.21436e-05
2.2168e-05
2.21436e-05
2.2168e-05
2.2168e-05
2.21924e-05
2.2168e-05
2.21924e-05
2.21924e-05
2.22168e-05
2.22168e-05
2.22412e-05
2.22168e-05
2.22412e-05
2.22412e-05
2.22412e-05
2.22412e-05
2.22656e-05
2.22656e-05
2.22656e-05
2.229e-05
2.23145e-05
2.229e-05
2.23145e-05
2.23145e-05
2.23389e-05
2.23389e-05
2.23389e-05
2.23389e-05
2.23633e-05
2.23633e-05
2.23633e-05
2.23633e-05
2.23877e-05
2.23877e-05
2.24121e-05
2.23877e-05
2.24121e-05
2.24121e-05
2.24365e-05
2.24121e-05
2.24365e-05
2.24365e-05
2.24609e-05
2.24365e-05
2.24609e-05
2.24609e-05
2.24609e-05
2.24609e-05
2.24609e-05
2.24609e-05
2.24854e-05
2.24609e-05
2.24854e-05
2.24854e-05
2.24854e-05
2.24854e-05
2.25098e-05
2.24854e-05
2.25098e-05
2.24854e-05
2.25098e-05
2.24854e-05
2.25098e-05
2.25098e-05
2.25342e-05
2.25098e-05
2.25342e-05
2.25098e-05
2.25342e-05
2.25098e-05
2.25342e-05
2.25098e-05
2.25342e-05
2.25342e-05
2.25342e-05
2.25098e-05
2.25342e-05
2.25342e-05
2.25342e-05
2.25098e-05
2.25342e-05
2.25098e-05
2.25342e-05
2.25098e-05
2.25342e-05
2.25098e-05
2.25342e-05
2.25098e-05
2.25342e-05
2.25098e-05
2.25342e-05
2.25098e-05
2.25098e-05
2.25098e-05
2.25098e-05
2.24854e-05
2.25098e-05
2.25098e-05
2.25098e-05
2.24854e-05
2.24854e-05
2.24854e-05
2.25098e-05
2.24854e-05
2.24854e-05
2.24854e-05
2.24854e-05
2.24609e-05
2.24854e-05
2.24609e-05
2.24609e-05
2.24609e-05
2.24609e-05
2.24609e-05
2.24609e-05
2.24609e-05
2.24609e-05
2.24365e-05
2.24609e-05
2.24365e-05
2.24365e-05
2.24365e-05
2.24365e-05
2.24121e-05
2.24121e-05
2.24121e-05
2.24121e-05
2.24121e-05
2.23877e-05
2.23877e-05
2.23877e-05
2.23633e-05
2.23877e-05
2.23633e-05
2.23633e-05
2.23633e-05
2.23633e-05
2.23389e-05
2.23389e-05
2.23389e-05
2.23389e-05
2.23389e-05
2.23389e-05
2.23145e-05
2.23145e-05
2.23145e-05
2.23145e-05
2.229e-05
2.229e-05
2.229e-05
2.229e-05
2.229e-05
2.229e-05
2.22656e-05
2.22656e-05
2.22656e-05
2.22656e-05
2.22412e-05
2.22412e-05
2.22412e-05
2.22412e-05
2.22168e-05
2.22168e-05
2.22168e-05
2.22168e-05
2.22168e-05
2.22168e-05
2.21924e-05
2.21924e-05
2.21924e-05
2.2168e-05
2.2168e-05
2.2168e-05
2.2168e-05
2.2168e-05
2.2168e-05
2.21436e-05
2.21436e-05
2.21436e-05
2.21191e-05
2.21191e-05
2.21191e-05
2.21191e-05
2.21191e-05
2.20947e-05
2.21191e-05
2.20947e-05
2.20947e-05
2.20947e-05
2.20703e-05
2.20947e-05
2.20703e-05
2.20703e-05
2.20703e-05
2.20703e-05
2.20459e-05
2.20703e-05
2.20459e-05
2.20459e-05
2.20459e-05
2.20459e-05
2.20459e-05
2.20459e-05
2.20459e-05
2.20215e-05
2.20215e-05
2.20215e-05
2.20215e-05
2.20215e-05
2.20215e-05
2.20215e-05
2.20215e-05
2.20215e-05
2.19971e-05
2.19971e-05
2.19971e-05
2.19971e-05
2.19971e-05
2.19971e-05
2.19971e-05
2.19971e-05
2.19727e-05
2.19971e-05
2.19727e-05
2.19727e-05
2.19727e-05
2.19727e-05
2.19727e-05
2.19727e-05
2.19727e-05
2.19727e-05
2.19727e-05
2.19727e-05
2.19727e-05
2.19727e-05
2.19727e-05
2.19727e-05
2.19727e-05
2.19727e-05
2.19727e-05
2.19727e-05
2.19727e-05
2.19727e-05
2.19727e-05
2.19727e-05
2.19727e-05
2.19727e-05
2.19727e-05
2.19727e-05
2.19727e-05
2.19727e-05
2.19727e-05
2.19727e-05
2.19727e-05
2.19727e-05
2.19727e-05
2.19727e-05
2.19727e-05
2.19727e-05
2.19727e-05
2.19727e-05
2.19727e-05
2.19727e-05
2.19727e-05
2.19971e-05
2.19727e-05
2.19971e-05
2.19971e-05
2.19971e-05
2.19971e-05
2.19971e-05
2.19971e-05
2.19971e-05
2.19971e-05
2.20215e-05
2.20215e-05
2.20215e-05
2.20215e-05
2.20215e-05
2.20215e-05
2.20215e-05
2.20215e-05
2.20459e-05
2.20459e-05
2.20459e-05
2.20459e-05
2.20459e-05
2.20459e-05
2.20459e-05
2.20459e-05
2.20459e-05
2.20703e-05
2.20703e-05
2.20703e-05
2.20703e-05
2.20703e-05
2.20703e-05
2.20947e-05
2.20947e-05
2.20947e-05
2.20947e-05
2.21191e-05
2.21191e-05
2.21191e-05
2.21191e-05
2.21191e-05
2.21191e-05
2.21436e-05
2.21436e-05
2.21436e-05
2.21436e-05
2.2168e-05
2.2168e-05
2.2168e-05
2.2168e-05
2.2168e-05
2.2168e-05
2.21924e-05
2.21924e-05
2.21924e-05
2.21924e-05
2.21924e-05
2.22168e-05
2.22168e-05
2.22168e-05
2.22412e-05
2.22412e-05
2.22412e-05
2.22412e-05
2.22412e-05
2.22412e-05
2.22656e-05
2.22656e-05
2.22656e-05
2.22656e-05
2.229e-05
2.229e-05
2.229e-05
2.229e-05
2.229e-05
2.229e-05
2.23145e-05
2.23145e-05
2.23145e-05
2.23145e-05
2.23389e-05
2.23145e-05
2.23389e-05
2.23389e-05
2.23389e-05
2.23389e-05
2.23389e-05
2.23389e-05
2.23389e-05
2.23389e-05
2.23633e-05
2.23633e-05
2.23633e-05
2.23633e-05
2.23633e-05
2.23633e-05
2.23633e-05
2.23633e-05
2.23877e-05
2.23633e-05
2.23877e-05
2.23633e-05
2.23877e-05
2.23633e-05
2.24121e-05
2.23877e-05
2.24121e-05
2.24121e-05
2.24121e-05
2.23877e-05
2.24121e-05
2.24121e-05
2.24121e-05
2.24121e-05
2.24121e-05
2.24121e-05
2.24365e-05
2.24121e-05
2.24365e-05
2.24121e-05
2.24121e-05
2.24121e-05
2.24121e-05
2.24121e-05
2.24121e-05
2.24121e-05
2.24121e-05
2.23877e-05
2.24121e-05
2.23877e-05
2.24121e-05
2.23877e-05
2.23877e-05
2.23877e-05
2.23877e-05
2.23877e-05
2.23877e-05
2.23633e-05
2.23877e-05
2.23633e-05
2.23877e-05
2.23633e-05
2.23877e-05
2.23633e-05
2.23633e-05
2.23389e-05
2.23633e-05
2.23389e-05
2.23633e-05
2.23389e-05
2.23633e-05
2.23389e-05
2.23389e-05
2.23145e-05
2.23389e-05
2.23145e-05
2.23389e-05
2.23145e-05
2.23145e-05
2.23145e-05
2.23145e-05
2.229e-05
2.23145e-05
2.229e-05
2.229e-05
2.229e-05
2.229e-05
2.22656e-05
2.229e-05
2.22656e-05
2.229e-05
2.22656e-05
2.229e-05
2.22656e-05
2.229e-05
2.22656e-05
2.22656e-05
2.22656e-05
2.22656e-05
2.22412e-05
2.22656e-05
2.22412e-05
2.22656e-05
2.22412e-05
2.22656e-05
2.22412e-05
2.22412e-05
2.22412e-05
2.22412e-05
2.22412e-05
2.22412e-05
2.22412e-05
2.22412e-05
2.22168e-05
2.22168e-05
2.22168e-05
2.22168e-05
2.21924e-05
2.22168e-05
2.21924e-05
2.22168e-05
2.21924e-05
2.21924e-05
2.2168e-05
2.21924e-05
2.2168e-05
2.2168e-05
2.2168e-05
2.2168e-05
2.21436e-05
2.2168e-05
2.21436e-05
2.21436e-05
2.21436e-05
2.21436e-05
2.21191e-05
2.21436e-05
2.21191e-05
2.21191e-05
2.20947e-05
2.21191e-05
2.21191e-05
2.21191e-05
2.20947e-05
2.21191e-05
2.20947e-05
2.20947e-05
2.20947e-05
2.21191e-05
2.20947e-05
2.20947e-05
2.20703e-05
2.20947e-05
2.20703e-05
2.20947e-05
2.20703e-05
2.20947e-05
2.20703e-05
2.20947e-05
2.20703e-05
2.20947e-05
2.20703e-05
2.20703e-05
2.20459e-05
2.20947e-05
2.20703e-05
2.20703e-05
2.20703e-05
2.20703e-05
2.20459e-05
2.20703e-05
2.20459e-05
2.20703e-05
2.20459e-05
2.20703e-05
2.20459e-05
2.20703e-05
2.20459e-05
2.20703e-05
2.20459e-05
2.20703e-05
2.20459e-05
2.20703e-05
2.20459e-05
2.20703e-05
2.20459e-05
2.20703e-05
2.20459e-05
2.20703e-05
2.20459e-05
2.20703e-05
2.20459e-05
2.20703e-05
2.20459e-05
2.20703e-05
2.20459e-05
2.20703e-05
2.20459e-05
2.20947e-05
2.20459e-05
2.20947e-05
2.20459e-05
2.20947e-05
2.20459e-05
2.20947e-05
2.20703e-05
2.20947e-05
2.20459e-05
2.20947e-05
2.20703e-05
2.20947e-05
2.20703e-05
2.20947e-05
2.20459e-05
2.20703e-05
2.20459e-05
2.20947e-05
2.20459e-05
2.20703e-05
2.20459e-05
2.20947e-05
2.20459e-05
2.20947e-05
2.20459e-05
2.20947e-05
2.20459e-05
2.20947e-05
2.20459e-05
2.20947e-05
2.20459e-05
2.20947e-05
2.20459e-05
2.20947e-05
2.20459e-05
2.20947e-05
2.20215e-05
2.20703e-05
2.20215e-05
2.20703e-05
2.19971e-05
2.20703e-05
2.20215e-05
2.20703e-05
2.19971e-05
2.20459e-05
2.20215e-05
2.20459e-05
2.19971e-05
2.20459e-05
2.19971e-05
2.20459e-05
2.19727e-05
2.20459e-05
2.19971e-05
2.20459e-05
2.19971e-05
2.20459e-05
2.19727e-05
2.20459e-05
2.19727e-05
2.20459e-05
2.19727e-05
2.20459e-05
2.19727e-05
2.20459e-05
2.19727e-05
2.20459e-05
2.19727e-05
2.20459e-05
2.19727e-05
2.20215e-05
2.19727e-05
2.20215e-05
2.19727e-05
2.20215e-05
2.19482e-05
2.20215e-05
2.19482e-05
2.20215e-05
2.19482e-05
2.20215e-05
2.19482e-05
2.19971e-05
2.19238e-05
2.19971e-05
2.19238e-05
2.19971e-05
2.19238e-05
2.19971e-05
2.19238e-05
2.19727e-05
2.19238e-05
2.19727e-05
2.19238e-05
2.19727e-05
2.18994e-05
2.19727e-05
2.18994e-05
2.19727e-05
2.18994e-05
2.19727e-05
2.18994e-05
2.19482e-05
2.1875e-05
2.19482e-05
2.1875e-05
2.19482e-05
2.1875e-05
2.19482e-05
2.1875e-05
2.19482e-05
2.1875e-05
2.19482e-05
2.1875e-05
2.19238e-05
2.18506e-05
2.19238e-05
2.18506e-05
2.19238e-05
2.18506e-05
2.19238e-05
2.18506e-05
2.19238e-05
2.18506e-05
2.19238e-05
2.18506e-05
2.18994e-05
2.18506e-05
2.18994e-05
2.18262e-05
2.18994e-05
2.18262e-05
2.18994e-05
2.18262e-05
2.18994e-05
2.18262e-05
2.18994e-05
2.18262e-05
2.1875e-05
2.18262e-05
2.1875e-05
2.18262e-05
2.1875e-05
2.18018e-05
2.1875e-05
2.18018e-05
2.1875e-05
2.18262e-05
2.1875e-05
2.18018e-05
2.1875e-05
2.18018e-05
2.1875e-05
2.18018e-05
2.1875e-05
2.18018e-05
2.1875e-05
2.18018e-05
2.1875e-05
2.18018e-05
2.1875e-05
2.18018e-05
2.1875e-05
2.18018e-05
2.1875e-05
2.18018e-05
2.1875e-05
2.18018e-05
2.1875e-05
2.18018e-05
2.1875e-05
2.17773e-05
2.1875e-05
2.17773e-05
2.1875e-05
2.17773e-05
2.1875e-05
2.17773e-05
2.1875e-05
2.17773e-05
2.1875e-05
2.18018e-05
2.18506e-05
2.17773e-05
2.18506e-05
2.18018e-05
2.1875e-05
2.18018e-05
2.1875e-05
2.17773e-05
2.1875e-05
2.18018e-05
2.1875e-05
2.18018e-05
2.1875e-05
2.18018e-05
2.1875e-05
2.18018e-05
2.1875e-05
2.18018e-05
2.1875e-05
2.18018e-05
2.1875e-05
2.18018e-05
2.18994e-05
2.18262e-05
2.18994e-05
2.18262e-05
2.18994e-05
2.18262e-05
2.18994e-05
2.18262e-05
2.19238e-05
2.18506e-05
2.18994e-05
2.18506e-05
2.19482e-05
2.18506e-05
2.19482e-05
2.18506e-05
2.19482e-05
2.1875e-05
2.19482e-05
2.1875e-05
2.19482e-05
2.1875e-05
2.19482e-05
2.1875e-05
2.19727e-05
2.1875e-05
2.19727e-05
2.18994e-05
2.19727e-05
2.18994e-05
2.19971e-05
2.18994e-05
2.19971e-05
2.19238e-05
2.19971e-05
2.19238e-05
2.19971e-05
2.19238e-05
2.19971e-05
2.19238e-05
2.20215e-05
2.19238e-05
2.20215e-05
2.19238e-05
2.20215e-05
2.19482e-05
2.20215e-05
2.19482e-05
2.20459e-05
2.19482e-05
2.20459e-05
2.19482e-05
2.20459e-05
2.19482e-05
2.20459e-05
2.19727e-05
2.20459e-05
2.19727e-05
2.20459e-05
2.19727e-05
2.20703e-05
2.19971e-05
2.20947e-05
2.20215e-05
2.21191e-05
2.20459e-05
2.21436e-05
2.20703e-05
2.2168e-05
2.20947e-05
2.21924e-05
2.21191e-05
2.22168e-05
2.21436e-05
2.22168e-05
2.21436e-05
2.22412e-05
2.21436e-05
2.22412e-05
2.21436e-05
2.22412e-05
2.2168e-05
2.22412e-05
2.21436e-05
2.22412e-05
2.21436e-05
2.22412e-05
2.21191e-05
2.22168e-05
2.20947e-05
2.21924e-05
2.20703e-05
2.2168e-05
2.20947e-05
2.2168e-05
2.20703e-05
2.21436e-05
2.20459e-05
2.21191e-05
2.20459e-05
2.21191e-05
2.20459e-05
2.20947e-05
2.20215e-05
2.20703e-05
2.19971e-05
2.20703e-05
2.19727e-05
2.20459e-05
2.19727e-05
2.20215e-05
2.19482e-05
2.20215e-05
2.19482e-05
2.20215e-05
2.19238e-05
2.19971e-05
2.19238e-05
2.19727e-05
2.18994e-05
2.19727e-05
2.18994e-05
2.19727e-05
2.18994e-05
2.19482e-05
2.1875e-05
2.19482e-05
2.1875e-05
2.19482e-05
2.18506e-05
2.19482e-05
2.18506e-05
2.19238e-05
2.18506e-05
2.19238e-05
2.18506e-05
2.18994e-05
2.18506e-05
2.18994e-05
2.18262e-05
2.18994e-05
2.18262e-05
2.1875e-05
2.18262e-05
2.1875e-05
2.18018e-05
2.1875e-05
2.18018e-05
2.1875e-05
2.18018e-05
2.18506e-05
2.17773e-05
2.18506e-05
2.17529e-05
2.18262e-05
2.17773e-05
2.18262e-05
2.17529e-05
2.18018e-05
2.17285e-05
2.18018e-05
2.17285e-05
2.18018e-05
2.17041e-05
2.17773e-05
2.16797e-05
2.17529e-05
2.16797e-05
2.17529e-05
2.16797e-05
2.17285e-05
2.16553e-05
2.17285e-05
2.16553e-05
2.17041e-05
2.16553e-05
2.17041e-05
2.16309e-05
2.16797e-05
2.16309e-05
2.16797e-05
2.16064e-05
2.16797e-05
2.16064e-05
2.16553e-05
2.1582e-05
2.16309e-05
2.1582e-05
2.16309e-05
2.15576e-05
2.16309e-05
2.15576e-05
2.16309e-05
2.15576e-05
2.16064e-05
2.15332e-05
2.16064e-05
2.15576e-05
2.16064e-05
2.15332e-05
2.16064e-05
2.15332e-05
2.16064e-05
2.15332e-05
2.16064e-05
2.15332e-05
2.16309e-05
2.15332e-05
2.16064e-05
2.15576e-05
2.16309e-05
2.15332e-05
2.16309e-05
2.15332e-05
2.16309e-05
2.15576e-05
2.16309e-05
2.15576e-05
2.16309e-05
2.15576e-05
2.16309e-05
2.15576e-05
2.16309e-05
2.15576e-05
2.16309e-05
2.15576e-05
2.16309e-05
2.15576e-05
2.16553e-05
2.1582e-05
2.16553e-05
2.1582e-05
2.16553e-05
2.15576e-05
2.16553e-05
2.1582e-05
2.16797e-05
2.1582e-05
2.16797e-05
2.1582e-05
2.16797e-05
2.16064e-05
2.16797e-05
2.16064e-05
2.17041e-05
2.16309e-05
2.17041e-05
2.16309e-05
2.17041e-05
2.16553e-05
2.17285e-05
2.16553e-05
2.17285e-05
2.16797e-05
2.17529e-05
2.16797e-05
2.17529e-05
2.16797e-05
2.17529e-05
2.17041e-05
2.17773e-05
2.17041e-05
2.17773e-05
2.17041e-05
2.18018e-05
2.17285e-05
2.18018e-05
2.17529e-05
2.18262e-05
2.17529e-05
2.18506e-05
2.17773e-05
2.18506e-05
2.17773e-05
2.1875e-05
2.18018e-05
2.18994e-05
2.18262e-05
2.18994e-05
2.18262e-05
2.19238e-05
2.1875e-05
2.19482e-05
2.1875e-05
2.19482e-05
2.1875e-05
2.19727e-05
2.18994e-05
2.19971e-05
2.18994e-05
2.19971e-05
2.19238e-05
2.20215e-05
2.19482e-05
2.20215e-05
2.19482e-05
2.20459e-05
2.19727e-05
2.20459e-05
2.19727e-05
2.20703e-05
2.19971e-05
2.20703e-05
2.19971e-05
2.20947e-05
2.20215e-05
2.20947e-05
2.20215e-05
2.20947e-05
2.20215e-05
2.20947e-05
2.20459e-05
2.21191e-05
2.20459e-05
2.21191e-05
2.20459e-05
2.21436e-05
2.20459e-05
2.21436e-05
2.20703e-05
2.21436e-05
2.20703e-05
2.21436e-05
2.20703e-05
2.21436e-05
2.20703e-05
2.21436e-05
2.20703e-05
2.21436e-05
2.20703e-05
2.21436e-05
2.20703e-05
2.21436e-05
2.20459e-05
2.21191e-05
2.20703e-05
2.21436e-05
2.20459e-05
2.21191e-05
2.20459e-05
2.21191e-05
2.20215e-05
2.20947e-05
2.20215e-05
2.20947e-05
2.20215e-05
2.20947e-05
2.20215e-05
2.20703e-05
2.19971e-05
2.20703e-05
2.19971e-05
2.20703e-05
2.19971e-05
2.20459e-05
2.19727e-05
2.20459e-05
2.19727e-05
2.20215e-05
2.19482e-05
2.20215e-05
2.19482e-05
2.20215e-05
2.19482e-05
2.19971e-05
2.19238e-05
2.19971e-05
2.19238e-05
2.19971e-05
2.19238e-05
2.19971e-05
2.19238e-05
2.19727e-05
2.18994e-05
2.19482e-05
2.18994e-05
2.19482e-05
2.1875e-05
2.19238e-05
2.1875e-05
2.19238e-05
2.1875e-05
2.19238e-05
2.18506e-05
2.18994e-05
2.18262e-05
2.18994e-05
2.18262e-05
2.18994e-05
2.18262e-05
2.1875e-05
2.18018e-05
2.18994e-05
2.17773e-05
2.1875e-05
2.17773e-05
2.1875e-05
2.18018e-05
2.1875e-05
2.18018e-05
2.1875e-05
2.18018e-05
2.1875e-05
2.18018e-05
2.1875e-05
2.18262e-05
2.18994e-05
2.18262e-05
2.18994e-05
2.18262e-05
2.18994e-05
2.18262e-05
2.18994e-05
2.18262e-05
2.18994e-05
2.18262e-05
2.18994e-05
2.18262e-05
2.18994e-05
2.18506e-05
2.18994e-05
2.18262e-05
2.19238e-05
2.18506e-05
2.19238e-05
2.1875e-05
2.19482e-05
2.1875e-05
2.19482e-05
2.1875e-05
2.19727e-05
2.18994e-05
2.19727e-05
2.19238e-05
2.19971e-05
2.19238e-05
2.20215e-05
2.19482e-05
2.20215e-05
2.19727e-05
2.20459e-05
2.19971e-05
2.20703e-05
2.19971e-05
2.20947e-05
2.20215e-05
2.21191e-05
2.20459e-05
2.21436e-05
2.20703e-05
2.2168e-05
2.20947e-05
2.2168e-05
2.21191e-05
2.21924e-05
2.21436e-05
2.22168e-05
2.2168e-05
2.22412e-05
2.21924e-05
2.22656e-05
2.22168e-05
2.229e-05
2.22412e-05
2.23145e-05
2.22656e-05
2.23389e-05
2.229e-05
2.23633e-05
2.229e-05
2.23877e-05
2.23145e-05
2.24121e-05
2.23389e-05
2.24365e-05
2.23877e-05
2.24609e-05
2.24121e-05
2.24854e-05
2.24365e-05
2.25098e-05
2.24609e-05
2.25586e-05
2.24854e-05
2.25586e-05
2.25098e-05
2.2583e-05
2.25342e-05
2.26074e-05
2.25586e-05
2.26562e-05
2.2583e-05
2.26562e-05
2.26074e-05
2.26807e-05
2.26318e-05
2.27051e-05
2.26318e-05
2.27295e-05
2.26562e-05
2.27295e-05
2.26807e-05
2.27539e-05
2.26807e-05
2.27783e-05
2.27051e-05
2.28027e-05
2.27295e-05
2.28027e-05
2.27539e-05
2.28271e-05
2.27539e-05
2.28516e-05
2.27783e-05
2.28516e-05
2.27783e-05
2.28516e-05
2.28027e-05
2.2876e-05
2.28027e-05
2.29004e-05
2.28271e-05
2.29248e-05
2.28516e-05
2.29492e-05
2.2876e-05
2.29736e-05
2.29248e-05
2.2998e-05
2.29248e-05
2.2998e-05
2.29248e-05
2.30225e-05
2.29492e-05
2.30225e-05
2.29492e-05
2.30225e-05
2.29492e-05
2.30469e-05
2.29736e-05
2.30469e-05
2.29736e-05
2.30469e-05
2.29736e-05
2.30469e-05
2.29736e-05
2.30469e-05
2.2998e-05
2.30713e-05
2.2998e-05
2.30713e-05
2.2998e-05
2.30713e-05
2.2998e-05
2.30713e-05
2.2998e-05
2.30713e-05
2.29736e-05
2.30713e-05
2.2998e-05
2.30469e-05
2.2998e-05
2.30469e-05
2.29736e-05
2.30469e-05
2.29736e-05
2.30225e-05
2.29492e-05
2.30225e-05
2.29248e-05
2.30225e-05
2.29492e-05
2.2998e-05
2.29248e-05
2.2998e-05
2.29248e-05
2.2998e-05
2.29004e-05
2.29736e-05
2.29004e-05
2.29736e-05
2.2876e-05
2.29492e-05
2.2876e-05
2.29492e-05
2.2876e-05
2.29492e-05
2.28516e-05
2.29248e-05
2.28516e-05
2.29004e-05
2.28271e-05
2.29004e-05
2.28271e-05
2.2876e-05
2.28271e-05
2.2876e-05
2.28027e-05
2.28516e-05
2.27783e-05
2.28516e-05
2.27783e-05
2.28271e-05
2.27539e-05
2.28271e-05
2.27539e-05
2.28271e-05
2.27295e-05
2.28027e-05
2.27295e-05
2.27783e-05
2.27051e-05
2.27783e-05
2.27051e-05
2.27539e-05
2.26807e-05
2.27539e-05
2.26807e-05
2.27295e-05
2.26562e-05
2.27295e-05
2.26562e-05
2.27051e-05
2.26562e-05
2.27051e-05
2.26318e-05
2.27051e-05
2.26318e-05
2.27051e-05
2.26318e-05
2.27051e-05
2.26318e-05
2.26807e-05
2.26318e-05
2.26807e-05
2.26074e-05
2.26807e-05
2.26074e-05
2.26807e-05
2.26074e-05
2.26807e-05
2.26074e-05
2.26807e-05
2.26074e-05
2.26807e-05
2.26318e-05
2.26807e-05
2.26074e-05
2.26807e-05
2.26074e-05
2.26807e-05
2.26318e-05
2.26807e-05
2.26318e-05
2.26807e-05
2.26318e-05
2.27051e-05
2.26318e-05
2.27051e-05
2.26318e-05
2.27295e-05
2.26562e-05
2.27295e-05
2.26807e-05
2.27539e-05
2.26807e-05
2.27539e-05
2.27051e-05
2.27783e-05
2.27051e-05
2.27783e-05
2.27295e-05
2.28027e-05
2.27295e-05
2.28027e-05
2.27539e-05
2.28271e-05
2.27539e-05
2.28271e-05
2.27539e-05
2.28271e-05
2.27539e-05
2.28516e-05
2.27783e-05
2.28516e-05
2.27783e-05
2.28516e-05
2.28027e-05
2.2876e-05
2.28027e-05
2.2876e-05
2.28027e-05
2.2876e-05
2.28027e-05
2.2876e-05
2.28027e-05
2.29004e-05
2.28027e-05
2.29004e-05
2.28027e-05
2.2876e-05
2.28271e-05
2.2876e-05
2.28271e-05
2.29004e-05
2.28271e-05
2.29004e-05
2.28271e-05
2.29004e-05
2.28271e-05
2.2876e-05
2.28271e-05
2.29004e-05
2.28271e-05
2.29004e-05
2.28027e-05
2.2876e-05
2.28271e-05
2.2876e-05
2.28027e-05
2.2876e-05
2.28027e-05
2.2876e-05
2.28027e-05
2.2876e-05
2.28027e-05
2.2876e-05
2.28027e-05
2.2876e-05
2.28027e-05
2.2876e-05
2.27783e-05
2.2876e-05
2.28027e-05
2.28516e-05
2.28027e-05
2.28516e-05
2.27783e-05
2.28516e-05
2.27783e-05
2.28516e-05
2.27783e-05
2.28271e-05
2.27539e-05
2.28271e-05
2.27539e-05
2.28271e-05
2.27539e-05
2.28027e-05
2.27295e-05
2.28027e-05
2.27295e-05
2.27783e-05
2.27051e-05
2.27539e-05
2.27051e-05
2.27539e-05
2.26807e-05
2.27539e-05
2.26807e-05
2.27295e-05
2.26562e-05
2.27051e-05
2.26318e-05
2.27051e-05
2.26318e-05
2.26807e-05
2.26318e-05
2.26562e-05
2.26074e-05
2.26562e-05
2.2583e-05
2.26318e-05
2.25586e-05
2.26318e-05
2.25586e-05
2.26074e-05
2.25342e-05
2.2583e-05
2.25098e-05
2.2583e-05
2.25098e-05
2.25586e-05
2.24854e-05
2.25342e-05
2.24609e-05
2.25098e-05
2.24365e-05
2.25098e-05
2.24365e-05
2.24854e-05
2.23877e-05
2.24609e-05
2.23877e-05
2.24365e-05
2.23633e-05
2.24121e-05
2.23389e-05
2.23877e-05
2.23389e-05
2.23633e-05
2.23145e-05
2.23633e-05
2.22656e-05
2.23389e-05
2.22412e-05
2.23145e-05
2.22656e-05
2.229e-05
2.22412e-05
2.22656e-05
2.22168e-05
2.22412e-05
2.21924e-05
2.22412e-05
2.2168e-05
2.22168e-05
2.21436e-05
2.21924e-05
2.21191e-05
2.21924e-05
2.20947e-05
2.2168e-05
2.20947e-05
2.2168e-05
2.20947e-05
2.21436e-05
2.20703e-05
2.21436e-05
2.20703e-05
2.21191e-05
2.20703e-05
2.21191e-05
2.20703e-05
2.20947e-05
2.20459e-05
2.20947e-05
2.20459e-05
2.20947e-05
2.20215e-05
2.20703e-05
2.20215e-05
2.20703e-05
2.20215e-05
2.20703e-05
2.20215e-05
2.20459e-05
2.19971e-05
2.20459e-05
2.19971e-05
2.20459e-05
2.19727e-05
2.20459e-05
2.19727e-05
2.20215e-05
2.19727e-05
2.20215e-05
2.19727e-05
2.20215e-05
2.19482e-05
2.19971e-05
2.19482e-05
2.19971e-05
2.19482e-05
2.19727e-05
2.19238e-05
2.19727e-05
2.19238e-05
2.19727e-05
2.19238e-05
2.19727e-05
2.18994e-05
2.19727e-05
2.18994e-05
2.19482e-05
2.1875e-05
2.19238e-05
2.1875e-05
2.19238e-05
2.1875e-05
2.19238e-05
2.18506e-05
2.18994e-05
2.18506e-05
2.18994e-05
2.18506e-05
2.18994e-05
2.18506e-05
2.18994e-05
2.18506e-05
2.18994e-05
2.18262e-05
2.1875e-05
2.18262e-05
2.18994e-05
2.18506e-05
2.18994e-05
2.18506e-05
2.18994e-05
2.1875e-05
2.19238e-05
2.1875e-05
2.19482e-05
2.18994e-05
2.19482e-05
2.18994e-05
2.19482e-05
2.18994e-05
2.19482e-05
2.18994e-05
2.19482e-05
2.1875e-05
2.19238e-05
2.18994e-05
2.19238e-05
2.1875e-05
2.18994e-05
2.1875e-05
2.18994e-05
2.18506e-05
2.18994e-05
2.18506e-05
2.1875e-05
2.18262e-05
2.1875e-05
2.18018e-05
2.18506e-05
2.17773e-05
2.18262e-05
2.17773e-05
2.18018e-05
2.17529e-05
2.17773e-05
2.17285e-05
2.17529e-05
2.17041e-05
2.17529e-05
2.16797e-05
2.17041e-05
2.16553e-05
2.16797e-05
2.16064e-05
2.16553e-05
2.16064e-05
2.16309e-05
2.15576e-05
2.1582e-05
2.15332e-05
2.15576e-05
2.15088e-05
2.15332e-05
2.146e-05
2.15088e-05
2.146e-05
2.14844e-05
2.14355e-05
2.146e-05
2.14111e-05
2.14355e-05
2.13867e-05
2.14111e-05
2.13623e-05
2.14111e-05
2.13623e-05
2.13867e-05
2.13379e-05
2.13867e-05
2.13379e-05
2.13623e-05
2.13379e-05
2.13623e-05
2.13379e-05
2.13623e-05
2.13135e-05
2.13623e-05
2.13135e-05
2.13623e-05
2.13379e-05
2.13623e-05
2.13379e-05
2.13867e-05
2.13379e-05
2.13867e-05
2.13623e-05
2.13867e-05
2.13623e-05
2.14111e-05
2.13867e-05
2.14111e-05
2.13867e-05
2.14355e-05
2.13867e-05
2.14355e-05
2.14111e-05
2.146e-05
2.14111e-05
2.146e-05
2.14355e-05
2.146e-05
2.14355e-05
2.14844e-05
2.14355e-05
2.14844e-05
2.146e-05
2.14844e-05
2.146e-05
2.15088e-05
2.146e-05
2.15088e-05
2.14844e-05
2.15088e-05
2.14844e-05
2.15088e-05
2.146e-05
2.15088e-05
2.146e-05
2.15088e-05
2.14844e-05
2.15088e-05
2.14844e-05
2.14844e-05
2.14844e-05
2.15088e-05
2.146e-05
2.15088e-05
2.14844e-05
2.14844e-05
2.146e-05
2.14844e-05
2.146e-05
2.15088e-05
2.146e-05
2.14844e-05
2.146e-05
2.15088e-05
2.146e-05
2.15088e-05
2.14844e-05
2.15088e-05
2.14844e-05
2.15088e-05
2.14844e-05
2.15088e-05
2.14844e-05
2.15088e-05
2.15088e-05
2.15332e-05
2.15088e-05
2.15332e-05
2.15088e-05
2.15332e-05
2.15088e-05
2.15332e-05
2.15088e-05
2.15332e-05
2.15088e-05
2.15332e-05
2.15088e-05
2.15576e-05
2.15088e-05
2.15576e-05
2.15088e-05
2.15576e-05
2.15088e-05
2.15576e-05
2.15088e-05
2.15576e-05
2.15332e-05
2.15576e-05
2.15576e-05
2.1582e-05
2.15576e-05
2.1582e-05
2.15576e-05
2.1582e-05
2.15576e-05
2.1582e-05
2.1582e-05
2.16064e-05
2.1582e-05
2.16064e-05
2.1582e-05
2.16064e-05
2.1582e-05
2.16309e-05
2.16064e-05
2.16309e-05
2.16064e-05
2.16309e-05
2.16309e-05
2.16553e-05
2.16309e-05
2.16553e-05
2.16553e-05
2.16797e-05
2.16553e-05
2.16797e-05
2.16797e-05
2.16797e-05
2.16797e-05
2.17041e-05
2.16797e-05
2.17041e-05
2.16797e-05
2.17285e-05
2.17041e-05
2.17285e-05
2.17041e-05
2.17285e-05
2.17285e-05
2.17529e-05
2.17285e-05
2.17529e-05
2.17285e-05
2.17529e-05
2.17285e-05
2.17773e-05
2.17285e-05
2.17529e-05
2.17529e-05
2.17529e-05
2.17529e-05
2.17529e-05
2.17529e-05
2.17773e-05
2.17529e-05
2.17773e-05
2.17529e-05
2.17773e-05
2.17529e-05
2.17529e-05
2.17285e-05
2.17529e-05
2.17285e-05
2.17529e-05
2.17041e-05
2.17285e-05
2.17041e-05
2.17285e-05
2.17041e-05
2.17041e-05
2.16797e-05
2.17041e-05
2.16797e-05
2.16797e-05
2.16553e-05
2.16797e-05
2.16309e-05
2.16553e-05
2.16309e-05
2.16553e-05
2.16309e-05
2.16309e-05
2.16064e-05
2.16309e-05
2.1582e-05
2.16064e-05
2.1582e-05
2.1582e-05
2.15576e-05
2.15576e-05
2.15332e-05
2.15576e-05
2.15332e-05
2.15332e-05
2.15332e-05
2.15332e-05
2.15332e-05
2.15332e-05
2.15088e-05
2.15332e-05
2.15088e-05
2.15332e-05
2.15332e-05
2.15576e-05
2.15576e-05
2.15576e-05
2.15576e-05
2.1582e-05
2.15576e-05
2.1582e-05
2.1582e-05
2.16064e-05
2.1582e-05
2.16064e-05
2.16064e-05
2.16309e-05
2.16064e-05
2.16309e-05
2.16309e-05
2.16553e-05
2.16309e-05
2.16309e-05
2.16553e-05
2.16553e-05
2.16309e-05
2.16553e-05
2.16553e-05
2.16553e-05
2.16553e-05
2.16797e-05
2.16553e-05
2.16797e-05
2.16553e-05
2.16797e-05
2.16553e-05
2.16797e-05
2.16553e-05
2.16797e-05
2.16553e-05
2.16797e-05
2.16553e-05
2.16797e-05
2.16553e-05
2.16553e-05
2.16553e-05
2.16553e-05
2.16553e-05
2.16553e-05
2.16309e-05
2.16309e-05
2.16309e-05
2.16309e-05
2.16309e-05
2.16553e-05
2.16309e-05
2.16309e-05
2.16309e-05
2.16309e-05
2.16064e-05
2.16309e-05
2.16064e-05
2.16309e-05
2.16064e-05
2.16064e-05
2.1582e-05
2.1582e-05
2.16064e-05
2.16064e-05
2.16064e-05
2.16064e-05
2.1582e-05
2.1582e-05
2.1582e-05
2.1582e-05
2.1582e-05
2.1582e-05
2.15576e-05
2.1582e-05
2.15576e-05
2.15576e-05
2.15576e-05
2.15576e-05
2.15576e-05
2.15576e-05
2.15576e-05
2.15576e-05
2.15332e-05
2.15332e-05
2.15332e-05
2.15576e-05
2.15332e-05
2.15332e-05
2.15332e-05
2.15332e-05
2.15332e-05
2.15332e-05
2.15088e-05
2.15088e-05
2.15088e-05
2.15088e-05
2.15088e-05
2.15332e-05
2.15088e-05
2.15088e-05
2.15088e-05
2.15088e-05
2.14844e-05
2.14844e-05
2.14844e-05
2.14844e-05
2.14844e-05
2.14844e-05
2.146e-05
2.14844e-05
2.14844e-05
2.14844e-05
2.146e-05
2.14844e-05
2.146e-05
2.146e-05
2.146e-05
2.146e-05
2.146e-05
2.146e-05
2.146e-05
2.14355e-05
2.146e-05
2.146e-05
2.146e-05
2.146e-05
2.14355e-05
2.14355e-05
2.14355e-05
2.14355e-05
2.14355e-05
2.14355e-05
2.14355e-05
2.14355e-05
2.14355e-05
2.14355e-05
2.14355e-05
2.14111e-05
2.14355e-05
2.14111e-05
2.14111e-05
2.14111e-05
2.14111e-05
2.14111e-05
2.14111e-05
2.14111e-05
2.14111e-05
2.13867e-05
2.13867e-05
2.13867e-05
2.13867e-05
2.13867e-05
2.13867e-05
2.13867e-05
2.13623e-05
2.13623e-05
2.13623e-05
2.13623e-05
2.13623e-05
2.13379e-05
2.13379e-05
2.13135e-05
2.13135e-05
2.13135e-05
2.13135e-05
2.13135e-05
2.12891e-05
2.12646e-05
2.12646e-05
2.12646e-05
2.12646e-05
2.12646e-05
2.12402e-05
2.12402e-05
2.12402e-05
2.12158e-05
2.12158e-05
2.12158e-05
2.11914e-05
2.11914e-05
2.1167e-05
2.1167e-05
2.1167e-05
2.11426e-05
2.11182e-05
