3.1982e-06
3.1982e-06
3.1982e-06
3.1982e-06
3.1982e-06
3.1982e-06
3.2227e-06
3.2227e-06
3.1982e-06
3.2227e-06
3.2227e-06
3.1982e-06
3.1982e-06
3.2227e-06
3.2227e-06
3.2227e-06
3.2227e-06
3.2227e-06
3.2471e-06
3.2471e-06
3.2227e-06
3.2471e-06
3.2471e-06
3.2227e-06
3.2227e-06
3.2227e-06
3.2227e-06
3.2227e-06
3.2227e-06
3.2227e-06
3.2227e-06
3.2227e-06
3.2227e-06
3.2471e-06
3.2471e-06
3.2227e-06
3.2471e-06
3.2227e-06
3.2227e-06
3.2227e-06
3.2471e-06
3.2471e-06
3.2471e-06
3.2227e-06
3.2227e-06
3.2471e-06
3.2471e-06
3.2471e-06
3.2471e-06
3.2471e-06
3.2471e-06
3.2471e-06
3.2227e-06
3.2227e-06
3.2227e-06
3.2471e-06
3.2227e-06
3.2471e-06
3.2471e-06
3.2471e-06
3.2471e-06
3.2227e-06
3.2471e-06
3.2471e-06
3.2471e-06
3.2471e-06
3.2715e-06
3.2471e-06
3.2471e-06
3.2471e-06
3.2715e-06
3.2715e-06
3.2471e-06
3.2715e-06
3.2715e-06
3.2715e-06
3.2715e-06
3.2959e-06
3.2959e-06
3.2715e-06
3.2715e-06
3.2959e-06
3.2959e-06
3.2715e-06
3.2959e-06
3.2959e-06
3.2959e-06
3.2959e-06
3.2959e-06
3.2959e-06
3.2959e-06
3.2715e-06
3.2959e-06
3.2959e-06
3.2959e-06
3.2715e-06
3.2959e-06
3.2959e-06
3.2959e-06
3.2959e-06
3.2959e-06
3.2959e-06
3.2959e-06
3.2959e-06
3.2959e-06
3.3203e-06
3.3203e-06
3.3203e-06
3.3203e-06
3.3203e-06
3.3203e-06
3.2959e-06
3.3203e-06
3.3203e-06
3.3203e-06
3.3203e-06
3.3203e-06
3.3203e-06
3.3203e-06
3.3447e-06
3.3447e-06
3.3203e-06
3.3203e-06
3.3447e-06
3.3447e-06
3.3203e-06
3.3203e-06
3.3203e-06
3.3203e-06
3.3447e-06
3.3203e-06
3.3203e-06
3.3203e-06
3.3203e-06
3.3203e-06
3.3203e-06
3.3203e-06
3.3203e-06
3.3203e-06
3.3203e-06
3.3203e-06
3.3203e-06
3.3203e-06
3.3203e-06
3.3203e-06
3.3203e-06
3.3203e-06
3.3203e-06
3.2959e-06
3.2959e-06
3.3203e-06
3.3203e-06
3.3203e-06
3.3203e-06
3.3203e-06
3.2959e-06
3.2959e-06
3.3203e-06
3.3203e-06
3.3203e-06
3.3203e-06
3.3203e-06
3.3203e-06
3.2959e-06
3.2959e-06
3.2959e-06
3.3203e-06
3.2959e-06
3.2959e-06
3.2959e-06
3.3203e-06
3.2959e-06
3.2959e-06
3.2959e-06
3.2959e-06
3.2959e-06
3.2959e-06
3.2959e-06
3.2959e-06
3.2959e-06
3.2959e-06
3.2959e-06
3.2959e-06
3.2959e-06
3.2959e-06
3.2959e-06
3.2959e-06
3.2715e-06
3.2959e-06
3.2959e-06
3.2959e-06
3.2959e-06
3.2959e-06
3.2715e-06
3.2959e-06
3.2715e-06
3.2715e-06
3.2959e-06
3.2715e-06
3.2959e-06
3.2715e-06
3.2959e-06
3.2959e-06
3.2715e-06
3.2959e-06
3.2715e-06
3.2715e-06
3.2715e-06
3.2715e-06
3.2715e-06
3.2715e-06
3.2471e-06
3.2715e-06
3.2715e-06
3.2715e-06
3.2715e-06
3.2471e-06
3.2715e-06
3.2715e-06
3.2715e-06
3.2715e-06
3.2471e-06
3.2471e-06
3.2715e-06
3.2715e-06
3.2715e-06
3.2715e-06
3.2715e-06
3.2715e-06
3.2471e-06
3.2715e-06
3.2715e-06
3.2715e-06
3.2715e-06
3.2715e-06
3.2715e-06
3.2715e-06
3.2715e-06
3.2715e-06
3.2715e-06
3.2715e-06
3.2715e-06
3.2715e-06
3.2715e-06
3.2715e-06
3.2471e-06
3.2715e-06
3.2715e-06
3.2715e-06
3.2715e-06
3.2471e-06
3.2715e-06
3.2715e-06
3.2471e-06
3.2471e-06
3.2715e-06
3.2715e-06
3.2471e-06
3.2715e-06
3.2715e-06
3.2471e-06
3.2471e-06
3.2715e-06
3.2715e-06
3.2471e-06
3.2715e-06
3.2715e-06
3.2715e-06
3.2471e-06
3.2471e-06
3.2471e-06
3.2471e-06
3.2471e-06
3.2715e-06
3.2715e-06
3.2715e-06
3.2471e-06
3.2715e-06
3.2715e-06
3.2471e-06
3.2715e-06
3.2715e-06
3.2471e-06
3.2715e-06
3.2715e-06
3.2471e-06
3.2715e-06
3.2715e-06
3.2715e-06
3.2715e-06
3.2715e-06
3.2715e-06
3.2715e-06
3.2715e-06
3.2959e-06
3.2959e-06
3.2959e-06
3.2959e-06
3.2959e-06
3.2959e-06
3.2959e-06
3.3203e-06
3.3203e-06
3.2959e-06
3.2959e-06
3.2959e-06
3.2959e-06
3.2959e-06
3.2959e-06
3.3203e-06
3.3203e-06
3.3203e-06
3.2959e-06
3.2959e-06
3.2959e-06
3.2959e-06
3.2959e-06
3.2959e-06
3.2959e-06
3.2959e-06
3.2959e-06
3.2959e-06
3.2959e-06
3.2959e-06
3.2959e-06
3.2959e-06
3.2959e-06
3.2959e-06
3.2959e-06
3.2959e-06
3.3203e-06
3.2959e-06
3.2959e-06
3.2959e-06
3.2959e-06
3.2959e-06
3.2959e-06
3.2959e-06
3.2959e-06
3.2959e-06
3.2959e-06
3.2959e-06
3.2959e-06
3.2959e-06
3.2959e-06
3.2959e-06
3.2959e-06
3.2959e-06
3.2959e-06
3.2959e-06
3.2959e-06
3.2959e-06
3.2959e-06
3.2959e-06
3.2959e-06
3.2959e-06
3.2959e-06
3.2959e-06
3.2959e-06
3.2715e-06
3.2959e-06
3.2715e-06
3.2959e-06
3.2715e-06
3.2959e-06
3.2715e-06
3.2959e-06
3.2715e-06
3.2959e-06
3.2715e-06
3.2715e-06
3.2959e-06
3.2715e-06
3.2715e-06
3.2715e-06
3.2715e-06
3.2959e-06
3.2715e-06
3.2959e-06
3.2715e-06
3.2715e-06
3.2715e-06
3.2959e-06
3.2715e-06
3.2715e-06
3.2715e-06
3.2715e-06
3.2715e-06
3.2715e-06
3.2715e-06
3.2715e-06
3.2715e-06
3.2715e-06
3.2715e-06
3.2715e-06
3.2715e-06
3.2715e-06
3.2715e-06
3.2959e-06
3.2715e-06
3.2959e-06
3.2715e-06
3.2715e-06
3.2715e-06
3.2959e-06
3.2715e-06
3.2959e-06
3.2715e-06
3.2959e-06
3.2715e-06
3.2959e-06
3.2715e-06
3.2715e-06
3.2715e-06
3.2715e-06
3.2715e-06
3.2959e-06
3.2715e-06
3.2715e-06
3.2715e-06
3.2715e-06
3.2715e-06
3.2715e-06
3.2471e-06
3.2715e-06
3.2715e-06
3.2715e-06
3.2715e-06
3.2715e-06
3.2715e-06
3.2471e-06
3.2715e-06
3.2471e-06
3.2471e-06
3.2715e-06
3.2471e-06
3.2471e-06
3.2715e-06
3.2471e-06
3.2471e-06
3.2471e-06
3.2471e-06
3.2471e-06
3.2471e-06
3.2471e-06
3.2227e-06
3.2471e-06
3.2471e-06
3.2227e-06
3.2471e-06
3.2471e-06
3.2227e-06
3.2227e-06
3.2471e-06
3.2471e-06
3.2227e-06
3.2471e-06
3.2227e-06
3.2471e-06
3.2227e-06
3.2227e-06
3.2227e-06
3.2227e-06
3.2227e-06
3.2227e-06
3.2227e-06
3.2227e-06
3.2227e-06
3.2227e-06
3.2227e-06
3.2227e-06
3.2227e-06
3.2227e-06
3.2227e-06
3.1982e-06
3.1982e-06
3.1982e-06
3.2227e-06
3.2227e-06
3.2227e-06
3.2227e-06
3.2227e-06
3.2227e-06
3.1982e-06
3.1982e-06
3.1982e-06
3.2227e-06
3.2227e-06
3.1982e-06
3.2227e-06
3.2227e-06
3.1982e-06
3.2227e-06
3.2227e-06
3.2227e-06
3.1982e-06
3.2227e-06
3.2227e-06
3.2227e-06
3.2227e-06
3.2227e-06
3.2227e-06
3.2227e-06
3.1982e-06
3.1982e-06
3.2227e-06
3.2227e-06
3.2227e-06
3.2227e-06
3.2471e-06
3.2471e-06
3.2471e-06
3.2471e-06
3.2471e-06
3.2471e-06
3.2471e-06
3.2471e-06
3.2471e-06
3.2227e-06
3.2471e-06
3.2471e-06
3.2471e-06
3.2471e-06
3.2471e-06
3.2471e-06
3.2715e-06
3.2715e-06
3.2715e-06
3.2715e-06
3.2715e-06
3.2715e-06
3.2715e-06
3.2715e-06
3.2715e-06
3.2715e-06
3.2715e-06
3.2715e-06
3.2959e-06
3.2959e-06
3.2715e-06
3.2715e-06
3.2959e-06
3.2959e-06
3.2959e-06
3.2715e-06
3.2959e-06
3.2959e-06
3.2959e-06
3.2959e-06
3.2959e-06
3.2959e-06
3.2959e-06
3.2959e-06
3.2959e-06
3.2959e-06
3.2959e-06
3.2959e-06
3.3203e-06
3.3203e-06
3.3203e-06
3.3203e-06
3.3203e-06
3.3203e-06
3.2959e-06
3.3203e-06
3.3447e-06
3.3203e-06
3.3447e-06
3.3203e-06
3.3203e-06
3.3203e-06
3.3203e-06
3.3203e-06
3.3447e-06
3.3447e-06
3.3447e-06
3.3447e-06
3.3447e-06
3.3447e-06
3.3447e-06
3.3447e-06
3.3447e-06
3.3447e-06
3.3447e-06
3.3691e-06
3.3691e-06
3.3691e-06
3.3691e-06
3.3691e-06
3.3691e-06
3.3447e-06
3.3691e-06
3.3691e-06
3.3691e-06
3.3936e-06
3.3936e-06
3.3936e-06
3.3936e-06
3.3936e-06
3.3936e-06
3.3936e-06
3.418e-06
3.418e-06
3.418e-06
3.418e-06
3.418e-06
3.418e-06
3.418e-06
3.4424e-06
3.4424e-06
3.4424e-06
3.4424e-06
3.418e-06
3.4668e-06
3.4424e-06
3.4668e-06
3.4668e-06
3.4668e-06
3.4668e-06
3.4668e-06
3.4668e-06
3.4668e-06
3.4668e-06
3.4912e-06
3.4912e-06
3.4912e-06
3.4668e-06
3.4912e-06
3.4912e-06
3.4912e-06
3.4912e-06
3.4912e-06
3.5156e-06
3.4912e-06
3.5156e-06
3.5156e-06
3.4912e-06
3.5156e-06
3.5156e-06
3.5156e-06
3.54e-06
3.54e-06
3.54e-06
3.54e-06
3.54e-06
3.54e-06
3.54e-06
3.5645e-06
3.54e-06
3.54e-06
3.5645e-06
3.5645e-06
3.54e-06
3.5645e-06
3.5645e-06
3.5645e-06
3.5645e-06
3.5645e-06
3.5645e-06
3.5645e-06
3.5645e-06
3.5645e-06
3.5645e-06
3.5645e-06
3.5645e-06
3.5889e-06
3.5645e-06
3.5889e-06
3.5645e-06
3.5889e-06
3.5645e-06
3.5889e-06
3.5645e-06
3.5889e-06
3.5889e-06
3.5889e-06
3.5889e-06
3.5889e-06
3.5889e-06
3.5889e-06
3.5889e-06
3.5889e-06
3.5889e-06
3.5889e-06
3.5889e-06
3.5889e-06
3.5889e-06
3.5889e-06
3.5889e-06
3.5889e-06
3.5889e-06
3.5889e-06
3.5889e-06
3.5889e-06
3.5889e-06
3.5889e-06
3.5889e-06
3.5889e-06
3.5889e-06
3.5889e-06
3.5889e-06
3.5889e-06
3.5889e-06
3.5889e-06
3.5889e-06
3.5889e-06
3.5889e-06
3.5889e-06
3.5889e-06
3.5889e-06
3.5889e-06
3.5889e-06
3.5889e-06
3.5889e-06
3.6133e-06
3.5889e-06
3.6133e-06
3.6133e-06
3.6133e-06
3.6133e-06
3.6133e-06
3.6133e-06
3.6133e-06
3.6133e-06
3.6133e-06
3.6133e-06
3.5889e-06
3.6133e-06
3.6133e-06
3.6133e-06
3.6133e-06
3.6133e-06
3.6133e-06
3.6133e-06
3.6133e-06
3.6133e-06
3.5889e-06
3.6133e-06
3.5889e-06
3.6133e-06
3.5889e-06
3.5889e-06
3.6133e-06
3.6133e-06
3.5889e-06
3.5889e-06
3.5889e-06
3.6133e-06
3.5889e-06
3.5889e-06
3.5889e-06
3.5889e-06
3.5889e-06
3.5889e-06
3.5889e-06
3.5889e-06
3.5889e-06
3.5889e-06
3.5889e-06
3.5889e-06
3.5645e-06
3.5889e-06
3.5889e-06
3.5889e-06
3.5889e-06
3.5889e-06
3.5889e-06
3.5889e-06
3.5645e-06
3.5889e-06
3.5645e-06
3.5889e-06
3.5645e-06
3.5889e-06
3.5889e-06
3.5889e-06
3.5645e-06
3.5889e-06
3.5889e-06
3.5645e-06
3.5645e-06
3.5889e-06
3.5645e-06
3.5645e-06
3.5645e-06
3.5889e-06
3.5645e-06
3.5645e-06
3.5645e-06
3.5645e-06
3.5645e-06
3.5645e-06
3.5645e-06
3.5645e-06
3.5645e-06
3.5645e-06
3.5645e-06
3.5645e-06
3.5645e-06
3.5645e-06
3.54e-06
3.5645e-06
3.5645e-06
3.5645e-06
3.5645e-06
3.5645e-06
3.54e-06
3.5645e-06
3.5645e-06
3.5645e-06
3.5645e-06
3.5645e-06
3.5645e-06
3.5889e-06
3.5645e-06
3.5645e-06
3.5645e-06
3.5645e-06
3.5645e-06
3.5645e-06
3.5645e-06
3.5645e-06
3.5645e-06
3.5645e-06
3.5645e-06
3.5889e-06
3.5645e-06
3.5889e-06
3.5889e-06
3.5645e-06
3.5645e-06
3.5889e-06
3.5889e-06
3.5889e-06
3.5889e-06
3.5889e-06
3.5889e-06
3.5889e-06
3.5889e-06
3.5889e-06
3.5889e-06
3.5889e-06
3.5889e-06
3.5889e-06
3.5889e-06
3.5889e-06
3.5889e-06
3.5889e-06
3.5889e-06
3.5889e-06
3.5889e-06
3.6133e-06
3.5889e-06
3.6133e-06
3.5889e-06
3.6133e-06
3.5889e-06
3.6133e-06
3.6133e-06
3.5889e-06
3.6133e-06
3.6133e-06
3.6133e-06
3.6133e-06
3.6133e-06
3.6133e-06
3.6133e-06
3.6133e-06
3.6133e-06
3.6133e-06
3.6133e-06
3.6377e-06
3.6133e-06
3.6133e-06
3.6133e-06
3.6377e-06
3.6133e-06
3.6377e-06
3.6133e-06
3.6133e-06
3.6133e-06
3.6377e-06
3.6133e-06
3.6133e-06
3.6377e-06
3.6377e-06
3.6377e-06
3.6377e-06
3.6377e-06
3.6377e-06
3.6133e-06
3.6377e-06
3.6133e-06
3.6377e-06
3.6377e-06
3.6377e-06
3.6133e-06
3.6133e-06
3.6133e-06
3.6377e-06
3.6377e-06
3.6377e-06
3.6377e-06
3.6377e-06
3.6377e-06
3.6377e-06
3.6133e-06
3.6133e-06
3.6133e-06
3.6377e-06
3.6133e-06
3.6377e-06
3.6377e-06
3.6377e-06
3.6377e-06
3.6377e-06
3.6133e-06
3.6133e-06
3.6133e-06
3.6133e-06
3.6377e-06
3.6377e-06
3.6377e-06
3.6377e-06
3.6377e-06
3.6377e-06
3.6377e-06
3.6133e-06
3.6377e-06
3.6377e-06
3.6377e-06
3.6377e-06
3.6377e-06
3.6377e-06
3.6377e-06
3.6133e-06
3.6133e-06
3.6133e-06
3.6377e-06
3.6377e-06
3.6133e-06
3.6133e-06
3.6133e-06
3.6377e-06
3.6377e-06
3.6377e-06
3.6377e-06
3.6377e-06
3.6133e-06
3.6133e-06
3.6133e-06
3.6133e-06
3.6133e-06
3.6377e-06
3.6133e-06
3.6377e-06
3.6133e-06
3.6377e-06
3.6377e-06
3.6133e-06
3.6133e-06
3.6133e-06
3.6133e-06
3.6133e-06
3.6133e-06
3.6133e-06
3.6133e-06
3.6133e-06
3.6133e-06
3.6133e-06
3.6133e-06
3.6133e-06
3.6133e-06
3.6133e-06
3.6133e-06
3.6133e-06
3.6133e-06
3.5889e-06
3.6133e-06
3.6133e-06
3.5889e-06
3.6133e-06
3.5889e-06
3.5889e-06
3.5889e-06
3.5889e-06
3.6133e-06
3.6133e-06
3.5889e-06
3.6133e-06
3.5889e-06
3.6133e-06
3.5889e-06
3.6133e-06
3.5889e-06
3.5889e-06
3.5889e-06
3.5889e-06
3.5889e-06
3.5889e-06
3.5889e-06
3.5889e-06
3.5889e-06
3.5889e-06
3.5889e-06
3.5889e-06
3.5889e-06
3.5889e-06
3.5889e-06
3.5889e-06
3.5889e-06
3.5889e-06
3.5889e-06
3.5889e-06
3.5889e-06
3.5889e-06
3.5889e-06
3.5889e-06
3.5645e-06
3.5889e-06
3.5889e-06
3.5889e-06
3.5889e-06
3.5889e-06
3.5645e-06
3.5889e-06
3.5645e-06
3.5889e-06
3.5645e-06
3.5889e-06
3.5645e-06
3.5889e-06
3.5645e-06
3.5645e-06
3.5645e-06
3.5645e-06
3.5645e-06
3.5645e-06
3.5645e-06
3.5645e-06
3.54e-06
3.5889e-06
3.5645e-06
3.5645e-06
3.54e-06
3.5645e-06
3.5645e-06
3.5645e-06
3.5645e-06
3.5645e-06
3.54e-06
3.5645e-06
3.5645e-06
3.5645e-06
3.5645e-06
3.5645e-06
3.5645e-06
3.5645e-06
3.5645e-06
3.5645e-06
3.5645e-06
3.5645e-06
3.5645e-06
3.5645e-06
3.5645e-06
3.5889e-06
3.5645e-06
3.5889e-06
3.5645e-06
3.5645e-06
3.5889e-06
3.5645e-06
3.5645e-06
3.5889e-06
3.5645e-06
3.5645e-06
3.5645e-06
3.5889e-06
3.5645e-06
3.5889e-06
3.5645e-06
3.5645e-06
3.5645e-06
3.5889e-06
3.5645e-06
3.5645e-06
3.5645e-06
3.5645e-06
3.5645e-06
3.5645e-06
3.5645e-06
3.5645e-06
3.5645e-06
3.54e-06
3.5645e-06
3.5645e-06
3.5645e-06
3.5645e-06
3.54e-06
3.5645e-06
3.5645e-06
3.5645e-06
3.5645e-06
3.5645e-06
3.5645e-06
3.5645e-06
3.54e-06
3.5645e-06
3.5645e-06
3.5645e-06
3.5645e-06
3.5645e-06
3.54e-06
3.5645e-06
3.5645e-06
3.5645e-06
3.5645e-06
3.5645e-06
3.5645e-06
3.5645e-06
3.5645e-06
3.5889e-06
3.5889e-06
3.5645e-06
3.5645e-06
3.5889e-06
3.5889e-06
3.5889e-06
3.5889e-06
3.5889e-06
3.5889e-06
3.5889e-06
3.5889e-06
3.5889e-06
3.5889e-06
3.5889e-06
3.5889e-06
3.6133e-06
3.6133e-06
3.5889e-06
3.6133e-06
3.6133e-06
3.6133e-06
3.6133e-06
3.6133e-06
3.6377e-06
3.6133e-06
3.6377e-06
3.6133e-06
3.6621e-06
3.6621e-06
3.6621e-06
3.6377e-06
3.6621e-06
3.6621e-06
3.6621e-06
3.6621e-06
3.6865e-06
3.6865e-06
3.6865e-06
3.6865e-06
3.7109e-06
3.7109e-06
3.7109e-06
3.7109e-06
3.7109e-06
3.7109e-06
3.7354e-06
3.7109e-06
3.7354e-06
3.7354e-06
3.7354e-06
3.7354e-06
3.7598e-06
3.7354e-06
3.7598e-06
3.7354e-06
3.7598e-06
3.7598e-06
3.7842e-06
3.7842e-06
3.7842e-06
3.7842e-06
3.8086e-06
3.7842e-06
3.8086e-06
3.8086e-06
3.833e-06
3.8086e-06
3.833e-06
3.8086e-06
3.833e-06
3.833e-06
3.8574e-06
3.8574e-06
3.8574e-06
3.8574e-06
3.8574e-06
3.8574e-06
3.8574e-06
3.8818e-06
3.8818e-06
3.8574e-06
3.8818e-06
3.8818e-06
3.8818e-06
3.8818e-06
3.8818e-06
3.9063e-06
3.9063e-06
3.9063e-06
3.9307e-06
3.9063e-06
3.9307e-06
3.9307e-06
3.9307e-06
3.9307e-06
3.9551e-06
3.9307e-06
3.9551e-06
3.9551e-06
3.9551e-06
3.9551e-06
3.9795e-06
3.9795e-06
3.9795e-06
3.9795e-06
3.9795e-06
3.9795e-06
3.9795e-06
3.9795e-06
3.9795e-06
3.9795e-06
4.0039e-06
4.0039e-06
4.0039e-06
4.0039e-06
4.0039e-06
4.0039e-06
4.0283e-06
4.0039e-06
4.0039e-06
4.0283e-06
4.0283e-06
4.0283e-06
4.0283e-06
4.0283e-06
4.0527e-06
4.0283e-06
4.0283e-06
4.0283e-06
4.0283e-06
4.0527e-06
4.0527e-06
4.0283e-06
4.0527e-06
4.0283e-06
4.0527e-06
4.0283e-06
4.0283e-06
4.0527e-06
4.0283e-06
4.0527e-06
4.0283e-06
4.0283e-06
4.0527e-06
4.0283e-06
4.0527e-06
4.0527e-06
4.0527e-06
4.0283e-06
4.0283e-06
4.0283e-06
4.0283e-06
4.0283e-06
4.0527e-06
4.0283e-06
4.0527e-06
4.0283e-06
4.0283e-06
4.0283e-06
4.0283e-06
4.0283e-06
4.0283e-06
4.0527e-06
4.0527e-06
4.0527e-06
4.0527e-06
4.0527e-06
4.0527e-06
4.0527e-06
4.0527e-06
4.0527e-06
4.0527e-06
4.0527e-06
4.0527e-06
4.0527e-06
4.0527e-06
4.0527e-06
4.0527e-06
4.0283e-06
4.0527e-06
4.0283e-06
4.0527e-06
4.0527e-06
4.0527e-06
4.0283e-06
4.0527e-06
4.0527e-06
4.0527e-06
4.0527e-06
4.0527e-06
4.0527e-06
4.0527e-06
4.0527e-06
4.0527e-06
4.0527e-06
4.0527e-06
4.0283e-06
4.0527e-06
4.0283e-06
4.0527e-06
4.0283e-06
4.0283e-06
4.0283e-06
4.0283e-06
4.0283e-06
4.0283e-06
4.0283e-06
4.0283e-06
4.0283e-06
4.0039e-06
4.0039e-06
4.0039e-06
4.0039e-06
4.0039e-06
4.0039e-06
4.0039e-06
4.0039e-06
4.0039e-06
3.9795e-06
4.0039e-06
4.0039e-06
4.0039e-06
3.9795e-06
4.0039e-06
4.0039e-06
4.0039e-06
3.9795e-06
4.0039e-06
3.9795e-06
3.9795e-06
4.0039e-06
4.0039e-06
4.0039e-06
4.0039e-06
4.0039e-06
4.0283e-06
4.0283e-06
4.0283e-06
4.0283e-06
4.0039e-06
4.0283e-06
4.0283e-06
4.0283e-06
4.0039e-06
4.0039e-06
4.0283e-06
4.0039e-06
4.0039e-06
4.0283e-06
4.0039e-06
4.0039e-06
4.0283e-06
4.0039e-06
4.0039e-06
4.0039e-06
4.0039e-06
4.0039e-06
4.0039e-06
4.0039e-06
4.0039e-06
4.0039e-06
4.0039e-06
4.0039e-06
4.0039e-06
4.0039e-06
4.0039e-06
3.9795e-06
4.0039e-06
3.9795e-06
4.0039e-06
3.9795e-06
3.9795e-06
3.9795e-06
3.9795e-06
3.9795e-06
3.9795e-06
3.9795e-06
3.9795e-06
3.9795e-06
3.9795e-06
3.9795e-06
3.9795e-06
3.9795e-06
3.9795e-06
3.9795e-06
3.9795e-06
3.9795e-06
3.9795e-06
3.9795e-06
3.9795e-06
3.9551e-06
3.9795e-06
3.9551e-06
3.9795e-06
3.9795e-06
3.9795e-06
3.9551e-06
3.9795e-06
3.9551e-06
3.9551e-06
3.9551e-06
3.9551e-06
3.9551e-06
3.9795e-06
3.9551e-06
3.9795e-06
3.9551e-06
3.9551e-06
3.9551e-06
3.9795e-06
3.9551e-06
3.9795e-06
3.9551e-06
3.9795e-06
3.9307e-06
3.9551e-06
3.9307e-06
3.9551e-06
3.9551e-06
3.9551e-06
3.9551e-06
3.9551e-06
3.9551e-06
3.9551e-06
3.9307e-06
3.9307e-06
3.9551e-06
3.9551e-06
3.9551e-06
3.9551e-06
3.9551e-06
3.9307e-06
3.9551e-06
3.9307e-06
3.9307e-06
3.9307e-06
3.9551e-06
3.9307e-06
3.9307e-06
3.9307e-06
3.9307e-06
3.9307e-06
3.9307e-06
3.9551e-06
3.9307e-06
3.9307e-06
3.9307e-06
3.9307e-06
3.9307e-06
3.9307e-06
3.9063e-06
3.9307e-06
3.9307e-06
3.9307e-06
3.9063e-06
3.9307e-06
3.9063e-06
3.9307e-06
3.9063e-06
3.9307e-06
3.9307e-06
3.9307e-06
3.9063e-06
3.9307e-06
3.9063e-06
3.9307e-06
3.9063e-06
3.9063e-06
3.9063e-06
3.9307e-06
3.9063e-06
3.9063e-06
3.9063e-06
3.9063e-06
3.9063e-06
3.9063e-06
3.9063e-06
3.9063e-06
3.8818e-06
3.9063e-06
3.8818e-06
3.9063e-06
3.8818e-06
3.9063e-06
3.8818e-06
3.9063e-06
3.8818e-06
3.8818e-06
3.8818e-06
3.8818e-06
3.8818e-06
3.9063e-06
3.8818e-06
3.8818e-06
3.8818e-06
3.8818e-06
3.8818e-06
3.8818e-06
3.8818e-06
3.8818e-06
3.8818e-06
3.8818e-06
3.8818e-06
3.8818e-06
3.8818e-06
3.8818e-06
3.8818e-06
3.8818e-06
3.8818e-06
3.8818e-06
3.8818e-06
3.8818e-06
3.8574e-06
3.8818e-06
3.8574e-06
3.8818e-06
3.8818e-06
3.8818e-06
3.8574e-06
3.8818e-06
3.8574e-06
3.8818e-06
3.8574e-06
3.8574e-06
3.8818e-06
3.8574e-06
3.8574e-06
3.8574e-06
3.8574e-06
3.8574e-06
3.8574e-06
3.8818e-06
3.8574e-06
3.8574e-06
3.8574e-06
3.8574e-06
3.8574e-06
3.8818e-06
3.8574e-06
3.8574e-06
3.8574e-06
3.8574e-06
3.8574e-06
3.8574e-06
3.8574e-06
3.8574e-06
3.8574e-06
3.8574e-06
3.8574e-06
3.8574e-06
3.8574e-06
3.8574e-06
3.8574e-06
3.8574e-06
3.8574e-06
3.8574e-06
3.8574e-06
3.8574e-06
3.8574e-06
3.8574e-06
3.8574e-06
3.8574e-06
3.8574e-06
3.8574e-06
3.8574e-06
3.8574e-06
3.8574e-06
3.8574e-06
3.833e-06
3.8574e-06
3.833e-06
3.8574e-06
3.8574e-06
3.8574e-06
3.833e-06
3.8574e-06
3.8574e-06
3.8574e-06
3.8574e-06
3.8574e-06
3.8574e-06
3.8574e-06
3.8574e-06
3.8574e-06
3.8574e-06
3.8574e-06
3.8574e-06
3.8574e-06
3.833e-06
3.8574e-06
3.8574e-06
3.8574e-06
3.833e-06
3.8574e-06
3.8574e-06
3.8574e-06
3.8574e-06
3.8574e-06
3.8574e-06
3.8574e-06
3.8574e-06
3.8574e-06
3.8574e-06
3.8818e-06
3.8574e-06
3.8818e-06
3.8574e-06
3.8818e-06
3.8818e-06
3.8818e-06
3.8574e-06
3.8818e-06
3.8818e-06
3.8818e-06
3.8574e-06
3.8818e-06
3.8818e-06
3.8818e-06
3.8818e-06
3.8818e-06
3.8818e-06
3.8818e-06
3.8818e-06
3.8818e-06
3.8818e-06
3.8818e-06
3.8818e-06
3.8818e-06
3.8818e-06
3.8818e-06
3.8818e-06
3.8818e-06
3.8818e-06
3.9063e-06
3.8818e-06
3.9063e-06
3.8818e-06
3.9063e-06
3.8818e-06
3.9063e-06
3.9063e-06
3.9063e-06
3.8818e-06
3.9063e-06
3.9063e-06
3.9063e-06
3.9063e-06
3.9063e-06
3.9063e-06
3.9063e-06
3.9063e-06
3.9307e-06
3.9063e-06
3.9307e-06
3.9307e-06
3.9307e-06
3.9307e-06
3.9307e-06
3.9063e-06
3.9063e-06
3.9307e-06
3.9307e-06
3.9307e-06
3.9307e-06
3.9307e-06
3.9307e-06
3.9307e-06
3.9307e-06
3.9307e-06
3.9551e-06
3.9307e-06
3.9307e-06
3.9307e-06
3.9551e-06
3.9307e-06
3.9551e-06
3.9551e-06
3.9551e-06
3.9551e-06
3.9551e-06
3.9795e-06
3.9795e-06
3.9795e-06
3.9795e-06
3.9795e-06
3.9795e-06
3.9795e-06
3.9795e-06
3.9795e-06
4.0039e-06
3.9795e-06
3.9795e-06
3.9795e-06
4.0039e-06
4.0039e-06
4.0039e-06
4.0039e-06
4.0039e-06
3.9795e-06
4.0039e-06
4.0039e-06
4.0039e-06
3.9795e-06
4.0039e-06
4.0039e-06
4.0039e-06
3.9795e-06
4.0039e-06
3.9795e-06
4.0039e-06
3.9795e-06
4.0039e-06
4.0039e-06
4.0039e-06
4.0039e-06
4.0039e-06
3.9795e-06
4.0039e-06
4.0039e-06
4.0039e-06
4.0039e-06
4.0283e-06
4.0039e-06
4.0283e-06
4.0283e-06
4.0283e-06
4.0283e-06
4.0283e-06
4.0283e-06
4.0283e-06
4.0283e-06
4.0283e-06
4.0283e-06
4.0527e-06
4.0283e-06
4.0283e-06
4.0283e-06
4.0527e-06
4.0283e-06
4.0283e-06
4.0039e-06
4.0283e-06
4.0283e-06
4.0283e-06
4.0283e-06
4.0283e-06
4.0283e-06
4.0283e-06
4.0283e-06
4.0283e-06
4.0039e-06
4.0283e-06
4.0283e-06
4.0283e-06
4.0039e-06
4.0283e-06
4.0283e-06
4.0283e-06
4.0039e-06
4.0283e-06
4.0283e-06
4.0283e-06
4.0039e-06
4.0283e-06
4.0283e-06
4.0283e-06
4.0283e-06
4.0283e-06
4.0283e-06
4.0283e-06
4.0283e-06
4.0283e-06
4.0283e-06
4.0283e-06
4.0283e-06
4.0283e-06
4.0283e-06
4.0283e-06
4.0039e-06
4.0283e-06
4.0039e-06
4.0283e-06
4.0283e-06
4.0283e-06
4.0283e-06
4.0283e-06
4.0039e-06
4.0283e-06
4.0283e-06
4.0283e-06
4.0039e-06
4.0283e-06
4.0039e-06
4.0283e-06
4.0039e-06
4.0283e-06
4.0039e-06
4.0283e-06
4.0039e-06
4.0039e-06
4.0039e-06
4.0039e-06
4.0039e-06
4.0039e-06
4.0039e-06
4.0039e-06
3.9795e-06
4.0039e-06
4.0039e-06
4.0039e-06
3.9795e-06
3.9795e-06
3.9795e-06
4.0039e-06
4.0039e-06
3.9795e-06
4.0039e-06
3.9795e-06
3.9795e-06
4.0039e-06
4.0039e-06
3.9795e-06
3.9795e-06
4.0039e-06
3.9795e-06
3.9795e-06
3.9795e-06
3.9795e-06
3.9795e-06
3.9795e-06
3.9795e-06
3.9795e-06
3.9795e-06
3.9795e-06
3.9795e-06
3.9795e-06
3.9795e-06
3.9795e-06
3.9795e-06
3.9795e-06
3.9795e-06
3.9795e-06
3.9795e-06
3.9795e-06
3.9795e-06
3.9795e-06
3.9795e-06
3.9795e-06
3.9551e-06
3.9795e-06
3.9795e-06
3.9795e-06
3.9551e-06
3.9795e-06
3.9795e-06
3.9795e-06
3.9551e-06
3.9551e-06
3.9551e-06
3.9551e-06
3.9551e-06
3.9551e-06
3.9551e-06
3.9551e-06
3.9551e-06
3.9551e-06
3.9551e-06
3.9551e-06
3.9551e-06
3.9551e-06
3.9551e-06
3.9551e-06
3.9551e-06
3.9551e-06
3.9307e-06
3.9551e-06
3.9551e-06
3.9551e-06
3.9551e-06
3.9551e-06
3.9307e-06
3.9551e-06
3.9551e-06
3.9551e-06
3.9307e-06
3.9307e-06
3.9307e-06
3.9551e-06
3.9307e-06
3.9551e-06
3.9307e-06
3.9307e-06
3.9307e-06
3.9551e-06
3.9307e-06
3.9551e-06
3.9307e-06
3.9307e-06
3.9307e-06
3.9307e-06
3.9307e-06
3.9307e-06
3.9307e-06
3.9307e-06
3.9307e-06
3.9307e-06
3.9063e-06
3.9307e-06
3.9063e-06
3.9307e-06
3.9063e-06
3.9307e-06
3.9307e-06
3.9307e-06
3.9063e-06
3.9307e-06
3.9063e-06
3.9307e-06
3.9307e-06
3.9063e-06
3.9063e-06
3.9307e-06
3.9063e-06
3.9063e-06
3.9063e-06
3.9307e-06
3.9063e-06
3.9307e-06
3.9063e-06
3.9063e-06
3.9063e-06
3.9063e-06
3.9063e-06
3.9063e-06
3.9063e-06
3.9063e-06
3.9063e-06
3.9063e-06
3.9063e-06
3.9063e-06
3.8818e-06
3.9063e-06
3.9063e-06
3.9063e-06
3.9063e-06
3.9063e-06
3.8818e-06
3.9063e-06
3.8818e-06
3.9063e-06
3.9063e-06
3.8818e-06
3.9063e-06
3.9063e-06
3.9063e-06
3.8818e-06
3.8818e-06
3.9063e-06
3.8818e-06
3.9063e-06
3.8818e-06
3.9063e-06
3.9063e-06
3.8818e-06
3.8818e-06
3.9063e-06
3.8818e-06
3.8818e-06
3.8818e-06
3.9063e-06
3.8818e-06
3.8818e-06
3.8818e-06
3.9063e-06
3.8818e-06
3.8818e-06
3.8818e-06
3.8818e-06
3.8818e-06
3.8818e-06
3.8818e-06
3.8818e-06
3.8818e-06
3.8818e-06
3.8818e-06
3.8818e-06
3.8818e-06
3.8818e-06
3.8818e-06
3.8818e-06
3.8818e-06
3.8818e-06
3.8818e-06
3.8818e-06
3.8818e-06
3.8818e-06
3.8818e-06
3.8818e-06
3.8818e-06
3.8818e-06
3.8818e-06
3.8818e-06
3.8818e-06
3.8818e-06
3.8818e-06
3.8818e-06
3.8574e-06
3.8818e-06
3.8574e-06
3.8818e-06
3.8818e-06
3.8818e-06
3.8818e-06
3.8818e-06
3.8818e-06
3.8818e-06
3.8818e-06
3.8818e-06
3.8574e-06
3.8818e-06
3.8818e-06
3.8818e-06
3.8818e-06
3.8818e-06
3.8818e-06
3.8818e-06
3.8574e-06
3.8818e-06
3.8818e-06
3.8818e-06
3.8574e-06
3.8574e-06
3.8574e-06
3.8818e-06
3.8818e-06
3.8818e-06
3.8818e-06
3.8574e-06
3.8574e-06
3.8574e-06
3.8574e-06
3.8574e-06
3.8818e-06
3.8818e-06
3.8574e-06
3.8818e-06
3.8818e-06
3.8574e-06
3.8818e-06
3.8818e-06
3.8574e-06
3.8574e-06
3.8818e-06
3.8574e-06
3.8574e-06
3.8818e-06
3.8818e-06
3.8818e-06
3.8818e-06
3.8818e-06
3.8818e-06
3.8574e-06
3.8574e-06
3.8818e-06
3.8818e-06
3.8818e-06
3.8574e-06
3.8574e-06
3.8574e-06
3.8818e-06
3.8574e-06
3.8574e-06
3.8818e-06
3.8818e-06
3.8818e-06
3.8574e-06
3.8574e-06
3.8574e-06
3.8818e-06
3.8818e-06
3.8574e-06
3.8818e-06
3.8818e-06
3.8818e-06
3.8818e-06
3.8818e-06
3.8818e-06
3.8818e-06
3.8818e-06
3.8818e-06
3.8574e-06
3.8818e-06
3.8574e-06
3.8818e-06
3.8818e-06
3.8818e-06
3.8818e-06
3.8818e-06
3.8818e-06
3.8818e-06
3.8818e-06
3.8574e-06
3.8818e-06
3.8818e-06
3.8818e-06
3.8818e-06
3.8574e-06
3.8818e-06
3.8574e-06
3.8818e-06
3.8574e-06
3.8818e-06
3.8818e-06
3.8818e-06
3.8818e-06
3.8818e-06
3.8818e-06
3.8818e-06
3.8818e-06
3.8818e-06
3.8818e-06
3.8818e-06
3.8818e-06
3.8818e-06
3.8818e-06
3.8818e-06
3.8818e-06
3.8818e-06
3.8818e-06
3.8818e-06
3.8818e-06
3.8818e-06
3.8818e-06
3.9063e-06
3.8818e-06
3.8818e-06
3.8818e-06
3.9063e-06
3.8818e-06
3.9063e-06
3.8818e-06
3.9063e-06
3.9063e-06
3.8818e-06
3.8818e-06
3.9063e-06
3.8818e-06
3.9063e-06
3.9063e-06
3.9063e-06
3.9063e-06
3.9063e-06
3.9063e-06
3.9307e-06
3.9063e-06
3.9063e-06
3.9307e-06
3.9307e-06
3.9063e-06
3.9307e-06
3.9307e-06
3.9063e-06
3.9307e-06
3.9307e-06
3.9307e-06
3.9307e-06
3.9307e-06
3.9307e-06
3.9307e-06
3.9307e-06
3.9307e-06
3.9307e-06
3.9307e-06
3.9551e-06
3.9307e-06
3.9551e-06
3.9307e-06
3.9551e-06
3.9551e-06
3.9307e-06
3.9307e-06
3.9551e-06
3.9307e-06
3.9551e-06
3.9551e-06
3.9551e-06
3.9551e-06
3.9551e-06
3.9551e-06
3.9551e-06
3.9551e-06
3.9551e-06
3.9551e-06
3.9795e-06
3.9551e-06
3.9551e-06
3.9795e-06
3.9795e-06
3.9795e-06
3.9795e-06
3.9551e-06
3.9795e-06
3.9551e-06
3.9795e-06
3.9795e-06
3.9795e-06
3.9795e-06
3.9795e-06
3.9795e-06
3.9795e-06
3.9795e-06
3.9795e-06
3.9795e-06
3.9795e-06
3.9795e-06
3.9795e-06
3.9795e-06
3.9795e-06
3.9795e-06
3.9795e-06
3.9795e-06
4.0039e-06
3.9795e-06
4.0039e-06
3.9795e-06
3.9795e-06
3.9795e-06
3.9795e-06
3.9795e-06
4.0039e-06
3.9795e-06
4.0039e-06
4.0039e-06
4.0039e-06
3.9795e-06
3.9795e-06
4.0039e-06
4.0039e-06
4.0039e-06
4.0039e-06
3.9795e-06
3.9795e-06
3.9795e-06
3.9795e-06
3.9795e-06
4.0039e-06
3.9795e-06
3.9795e-06
3.9795e-06
4.0039e-06
4.0039e-06
4.0039e-06
4.0039e-06
4.0039e-06
4.0039e-06
4.0039e-06
3.9795e-06
3.9795e-06
4.0039e-06
4.0039e-06
4.0039e-06
4.0039e-06
4.0039e-06
4.0039e-06
4.0039e-06
4.0039e-06
4.0039e-06
4.0039e-06
4.0039e-06
4.0039e-06
4.0039e-06
4.0039e-06
4.0039e-06
4.0039e-06
4.0039e-06
4.0039e-06
4.0039e-06
4.0039e-06
4.0039e-06
4.0039e-06
4.0039e-06
4.0039e-06
4.0283e-06
4.0283e-06
4.0283e-06
4.0283e-06
4.0283e-06
4.0283e-06
4.0283e-06
4.0283e-06
4.0283e-06
4.0283e-06
4.0283e-06
4.0039e-06
4.0039e-06
4.0283e-06
4.0283e-06
4.0283e-06
4.0283e-06
4.0283e-06
4.0283e-06
4.0283e-06
4.0039e-06
4.0039e-06
4.0039e-06
4.0283e-06
4.0039e-06
4.0283e-06
4.0283e-06
4.0039e-06
4.0039e-06
4.0283e-06
4.0039e-06
4.0283e-06
4.0283e-06
4.0283e-06
4.0283e-06
4.0283e-06
4.0283e-06
4.0283e-06
4.0039e-06
4.0283e-06
4.0283e-06
4.0283e-06
4.0039e-06
4.0283e-06
4.0283e-06
4.0283e-06
4.0283e-06
4.0283e-06
4.0283e-06
4.0283e-06
4.0283e-06
4.0283e-06
4.0039e-06
4.0283e-06
4.0283e-06
4.0283e-06
4.0039e-06
4.0283e-06
4.0283e-06
4.0283e-06
4.0283e-06
4.0283e-06
4.0283e-06
4.0283e-06
4.0283e-06
4.0283e-06
4.0283e-06
4.0283e-06
4.0283e-06
4.0283e-06
4.0283e-06
4.0283e-06
4.0527e-06
4.0527e-06
4.0283e-06
4.0527e-06
4.0527e-06
4.0527e-06
4.0527e-06
4.0527e-06
4.0527e-06
4.0771e-06
4.0771e-06
4.0771e-06
4.0527e-06
4.0771e-06
4.0771e-06
4.0771e-06
4.0771e-06
4.0771e-06
4.0771e-06
4.1016e-06
4.0771e-06
4.1016e-06
4.1016e-06
4.1016e-06
4.1016e-06
4.126e-06
4.1016e-06
4.126e-06
4.126e-06
4.126e-06
4.126e-06
4.126e-06
4.1504e-06
4.1504e-06
4.1504e-06
4.1748e-06
4.1748e-06
4.1748e-06
4.1748e-06
4.1748e-06
4.1748e-06
4.1992e-06
4.1992e-06
4.1992e-06
4.1992e-06
4.1992e-06
4.1992e-06
4.2236e-06
4.2236e-06
4.2236e-06
4.2236e-06
4.248e-06
4.248e-06
4.248e-06
4.2725e-06
4.2725e-06
4.2725e-06
4.2725e-06
4.2725e-06
4.2969e-06
4.2969e-06
4.2969e-06
4.2969e-06
4.3213e-06
4.2969e-06
4.3213e-06
4.3213e-06
4.3213e-06
4.3213e-06
4.3457e-06
4.3457e-06
4.3457e-06
4.3457e-06
4.3701e-06
4.3457e-06
4.3701e-06
4.3701e-06
4.3701e-06
4.3701e-06
4.3701e-06
4.3701e-06
4.3945e-06
4.3701e-06
4.3945e-06
4.3945e-06
4.3945e-06
4.3701e-06
4.3945e-06
4.3945e-06
4.3945e-06
4.3945e-06
4.4189e-06
4.4189e-06
4.4189e-06
4.4189e-06
4.4189e-06
4.4189e-06
4.4434e-06
4.4189e-06
4.4434e-06
4.4189e-06
4.4434e-06
4.4434e-06
4.4434e-06
4.4434e-06
4.4434e-06
4.4434e-06
4.4434e-06
4.4434e-06
4.4434e-06
4.4678e-06
4.4434e-06
4.4434e-06
4.4678e-06
4.4434e-06
4.4678e-06
4.4678e-06
4.4678e-06
4.4678e-06
4.4678e-06
4.4678e-06
4.4678e-06
4.4678e-06
4.4678e-06
4.4678e-06
4.4678e-06
4.4678e-06
4.4678e-06
4.4678e-06
4.4678e-06
4.4678e-06
4.4678e-06
4.4678e-06
4.4922e-06
4.4678e-06
4.4922e-06
4.4678e-06
4.4678e-06
4.4678e-06
4.4922e-06
4.4678e-06
4.4922e-06
4.4678e-06
4.4922e-06
4.4922e-06
4.4922e-06
4.4678e-06
4.4678e-06
4.4678e-06
4.4922e-06
4.4678e-06
4.4922e-06
4.4922e-06
4.4922e-06
4.4678e-06
4.4922e-06
4.4678e-06
4.4922e-06
4.4922e-06
4.4678e-06
4.4678e-06
4.4922e-06
4.4678e-06
4.4922e-06
4.4678e-06
4.4922e-06
4.4922e-06
4.4922e-06
4.4678e-06
4.4922e-06
4.4922e-06
4.4678e-06
4.4678e-06
4.4678e-06
4.4678e-06
4.4922e-06
4.4678e-06
4.4678e-06
4.4678e-06
4.4678e-06
4.4678e-06
4.4678e-06
4.4678e-06
4.4678e-06
4.4434e-06
4.4678e-06
4.4678e-06
4.4678e-06
4.4434e-06
4.4678e-06
4.4434e-06
4.4678e-06
4.4434e-06
4.4434e-06
4.4434e-06
4.4434e-06
4.4434e-06
4.4434e-06
4.4189e-06
4.4434e-06
4.4189e-06
4.4189e-06
4.4189e-06
4.4189e-06
4.4189e-06
4.4189e-06
4.4189e-06
4.4189e-06
4.4189e-06
4.4189e-06
4.3945e-06
4.4189e-06
4.3945e-06
4.3945e-06
4.3945e-06
4.3945e-06
4.3701e-06
4.3945e-06
4.3945e-06
4.3945e-06
4.3701e-06
4.3701e-06
4.3701e-06
4.3945e-06
4.3701e-06
4.3701e-06
4.3701e-06
4.3701e-06
4.3701e-06
4.3701e-06
4.3701e-06
4.3701e-06
4.3701e-06
4.3457e-06
4.3457e-06
4.3457e-06
4.3457e-06
4.3701e-06
4.3457e-06
4.3457e-06
4.3457e-06
4.3457e-06
4.3457e-06
4.3457e-06
4.3213e-06
4.3213e-06
4.3213e-06
4.3457e-06
4.3213e-06
4.3213e-06
4.3213e-06
4.3213e-06
4.3213e-06
4.3213e-06
4.3213e-06
4.3213e-06
4.3213e-06
4.2969e-06
4.3213e-06
4.2969e-06
4.2969e-06
4.3213e-06
4.2969e-06
4.2969e-06
4.2969e-06
4.2969e-06
4.2969e-06
4.2969e-06
4.2969e-06
4.2725e-06
4.2969e-06
4.2725e-06
4.2725e-06
4.2969e-06
4.2725e-06
4.2969e-06
4.2725e-06
4.2725e-06
4.2725e-06
4.2725e-06
4.248e-06
4.2725e-06
4.2725e-06
4.2725e-06
4.2725e-06
4.2725e-06
4.2725e-06
4.2725e-06
4.248e-06
4.248e-06
4.248e-06
4.248e-06
4.248e-06
4.248e-06
4.248e-06
4.248e-06
4.2236e-06
4.248e-06
4.248e-06
4.248e-06
4.2236e-06
4.2236e-06
4.2236e-06
4.2236e-06
4.2236e-06
4.248e-06
4.2236e-06
4.2236e-06
4.2236e-06
4.2236e-06
4.2236e-06
4.2236e-06
4.2236e-06
4.2236e-06
4.2236e-06
4.1992e-06
4.1992e-06
4.2236e-06
4.1992e-06
4.2236e-06
4.1992e-06
4.1992e-06
4.1992e-06
4.1992e-06
4.1992e-06
4.1992e-06
4.1992e-06
4.1992e-06
4.1992e-06
4.1992e-06
4.1992e-06
4.1748e-06
4.1992e-06
4.1748e-06
4.1992e-06
4.1992e-06
4.1748e-06
4.1992e-06
4.1748e-06
4.1992e-06
4.1748e-06
4.1992e-06
4.1748e-06
4.1748e-06
4.1748e-06
4.1748e-06
4.1748e-06
4.1748e-06
4.1748e-06
4.1748e-06
4.1748e-06
4.1748e-06
4.1748e-06
4.1748e-06
4.1748e-06
4.1748e-06
4.1748e-06
4.1748e-06
4.1504e-06
4.1748e-06
4.1504e-06
4.1748e-06
4.1504e-06
4.1748e-06
4.1504e-06
4.1504e-06
4.1504e-06
4.1504e-06
4.1504e-06
4.1504e-06
4.1504e-06
4.1748e-06
4.1504e-06
4.1504e-06
4.1504e-06
4.1504e-06
4.1504e-06
4.1504e-06
4.1504e-06
4.1504e-06
4.126e-06
4.1504e-06
4.1504e-06
4.1504e-06
4.1504e-06
4.1504e-06
4.1504e-06
4.1504e-06
4.1504e-06
4.1504e-06
4.1504e-06
4.1504e-06
4.1504e-06
4.1748e-06
4.1504e-06
4.1748e-06
4.1504e-06
4.1748e-06
4.1504e-06
4.1748e-06
4.1504e-06
4.1748e-06
4.1748e-06
4.1748e-06
4.1748e-06
4.1748e-06
4.1748e-06
4.1992e-06
4.1748e-06
4.1992e-06
4.1992e-06
4.1748e-06
4.1748e-06
4.1992e-06
4.1992e-06
4.1992e-06
4.1992e-06
4.1992e-06
4.1992e-06
4.2236e-06
4.1992e-06
4.2236e-06
4.2236e-06
4.2236e-06
4.2236e-06
4.248e-06
4.2236e-06
4.248e-06
4.248e-06
4.248e-06
4.248e-06
4.248e-06
4.248e-06
4.2725e-06
4.248e-06
4.2725e-06
4.2725e-06
4.2725e-06
4.2725e-06
4.2969e-06
4.2725e-06
4.2725e-06
4.2969e-06
4.2969e-06
4.2969e-06
4.2969e-06
4.2969e-06
4.2969e-06
4.2969e-06
4.2969e-06
4.2969e-06
4.3213e-06
4.3213e-06
4.3213e-06
4.3213e-06
4.3213e-06
4.3213e-06
4.3213e-06
4.3457e-06
4.3457e-06
4.3457e-06
4.3457e-06
4.3457e-06
4.3701e-06
4.3457e-06
4.3701e-06
4.3701e-06
4.3701e-06
4.3701e-06
4.3701e-06
4.3701e-06
4.3701e-06
4.3701e-06
4.3701e-06
4.3701e-06
4.3701e-06
4.3701e-06
4.3701e-06
4.3701e-06
4.3701e-06
4.3701e-06
4.3945e-06
4.3701e-06
4.3945e-06
4.3701e-06
4.3945e-06
4.3945e-06
4.3945e-06
4.3701e-06
4.3945e-06
4.3945e-06
4.3945e-06
4.3701e-06
4.3945e-06
4.3945e-06
4.3945e-06
4.3945e-06
4.3945e-06
4.3945e-06
4.3945e-06
4.3945e-06
4.3945e-06
4.3945e-06
4.3945e-06
4.3945e-06
4.3945e-06
4.4189e-06
4.4189e-06
4.4189e-06
4.4189e-06
4.3945e-06
4.3945e-06
4.3945e-06
4.4189e-06
4.4189e-06
4.4189e-06
4.4189e-06
4.4189e-06
4.4189e-06
4.4189e-06
4.3945e-06
4.4189e-06
4.3945e-06
4.3945e-06
4.4189e-06
4.4189e-06
4.3945e-06
4.3945e-06
4.3945e-06
4.4189e-06
4.3945e-06
4.3945e-06
4.3945e-06
4.4189e-06
4.4189e-06
4.4189e-06
4.3945e-06
4.4189e-06
4.3945e-06
4.4189e-06
4.3945e-06
4.4189e-06
4.3945e-06
4.3945e-06
4.3945e-06
4.3945e-06
4.4189e-06
4.3945e-06
4.3945e-06
4.3945e-06
4.4189e-06
4.3945e-06
4.3945e-06
4.3945e-06
4.3945e-06
4.3945e-06
4.3945e-06
4.3945e-06
4.3945e-06
4.3945e-06
4.3945e-06
4.3945e-06
4.3945e-06
4.3945e-06
4.3945e-06
4.3945e-06
4.3945e-06
4.3945e-06
4.3945e-06
4.3945e-06
4.3945e-06
4.3945e-06
4.3945e-06
4.3945e-06
4.3945e-06
4.3945e-06
4.3945e-06
4.3945e-06
4.4189e-06
4.4189e-06
4.3945e-06
4.4189e-06
4.4434e-06
4.4434e-06
4.4434e-06
4.4434e-06
4.4434e-06
4.4434e-06
4.4189e-06
4.4434e-06
4.4434e-06
4.4434e-06
4.4434e-06
4.4434e-06
4.4434e-06
4.4189e-06
4.4189e-06
4.4189e-06
4.4434e-06
4.4189e-06
4.4189e-06
4.4189e-06
4.4189e-06
4.4189e-06
4.3945e-06
4.4189e-06
4.4189e-06
4.3945e-06
4.4189e-06
4.4189e-06
4.4189e-06
4.3945e-06
4.3945e-06
4.3945e-06
4.3945e-06
4.3945e-06
4.3945e-06
4.3945e-06
4.3945e-06
4.3945e-06
4.3945e-06
4.3701e-06
4.3945e-06
4.3945e-06
4.3701e-06
4.3701e-06
4.3945e-06
4.3701e-06
4.3701e-06
4.3701e-06
4.3701e-06
4.3701e-06
4.3701e-06
4.3701e-06
4.3701e-06
4.3701e-06
4.3701e-06
4.3457e-06
4.3701e-06
4.3701e-06
4.3701e-06
4.3457e-06
4.3457e-06
4.3457e-06
4.3457e-06
4.3457e-06
4.3457e-06
4.3457e-06
4.3457e-06
4.3457e-06
4.3457e-06
4.3457e-06
4.3213e-06
4.3457e-06
4.3457e-06
4.3457e-06
4.3213e-06
4.3213e-06
4.3213e-06
4.3213e-06
4.3213e-06
4.3213e-06
4.3213e-06
4.3213e-06
4.3213e-06
4.3213e-06
4.3213e-06
4.3213e-06
4.2969e-06
4.2969e-06
4.2969e-06
4.2969e-06
4.2969e-06
4.3213e-06
4.3213e-06
4.2969e-06
4.2969e-06
4.2969e-06
4.2969e-06
4.2969e-06
4.2969e-06
4.2969e-06
4.2969e-06
4.2969e-06
4.2969e-06
4.2969e-06
4.2969e-06
4.2969e-06
4.2725e-06
4.2969e-06
4.2725e-06
4.2725e-06
4.2725e-06
4.2969e-06
4.2725e-06
4.2725e-06
4.2725e-06
4.2725e-06
4.2725e-06
4.2725e-06
4.2725e-06
4.2725e-06
4.2725e-06
4.2725e-06
4.2725e-06
4.2725e-06
4.2725e-06
4.2725e-06
4.248e-06
4.2725e-06
4.2725e-06
4.2725e-06
4.248e-06
4.248e-06
4.2725e-06
4.2725e-06
4.248e-06
4.248e-06
4.248e-06
4.248e-06
4.248e-06
4.248e-06
4.248e-06
4.248e-06
4.248e-06
4.248e-06
4.248e-06
4.248e-06
4.248e-06
4.248e-06
4.248e-06
4.248e-06
4.248e-06
4.248e-06
4.248e-06
4.248e-06
4.248e-06
4.248e-06
4.248e-06
4.2725e-06
4.248e-06
4.248e-06
4.248e-06
4.2725e-06
4.248e-06
4.248e-06
4.248e-06
4.248e-06
4.248e-06
4.2725e-06
4.248e-06
4.2725e-06
4.248e-06
4.248e-06
4.248e-06
4.2725e-06
4.2725e-06
4.248e-06
4.2725e-06
4.2725e-06
4.2725e-06
4.2725e-06
4.2725e-06
4.2725e-06
4.2725e-06
4.2725e-06
4.2725e-06
4.2725e-06
4.2725e-06
4.2725e-06
4.2725e-06
4.2725e-06
4.2725e-06
4.2725e-06
4.2725e-06
4.2969e-06
4.2725e-06
4.2969e-06
4.2725e-06
4.2969e-06
4.2969e-06
4.2725e-06
4.2725e-06
4.2969e-06
4.2969e-06
4.2969e-06
4.2969e-06
4.2969e-06
4.2969e-06
4.2969e-06
4.2969e-06
4.2969e-06
4.2969e-06
4.2969e-06
4.2969e-06
4.2969e-06
4.2969e-06
4.2969e-06
4.2969e-06
4.2969e-06
4.2969e-06
4.2969e-06
4.2969e-06
4.3213e-06
4.2969e-06
4.2969e-06
4.2969e-06
4.3213e-06
4.2969e-06
4.2969e-06
4.2969e-06
4.2969e-06
4.2969e-06
4.2969e-06
4.3213e-06
4.3213e-06
4.2969e-06
4.3213e-06
4.3213e-06
4.3213e-06
4.2969e-06
4.3213e-06
4.3213e-06
4.3213e-06
4.2969e-06
4.3213e-06
4.2969e-06
4.3213e-06
4.2969e-06
4.3213e-06
4.3213e-06
4.3213e-06
4.2969e-06
4.3213e-06
4.3213e-06
4.3213e-06
4.3213e-06
4.3213e-06
4.3213e-06
4.3213e-06
4.3213e-06
4.3213e-06
4.3213e-06
4.3213e-06
4.3213e-06
4.3213e-06
4.3213e-06
4.3213e-06
4.3213e-06
4.3213e-06
4.3213e-06
4.3213e-06
4.3213e-06
4.3213e-06
4.3213e-06
4.3213e-06
4.3213e-06
4.3213e-06
4.3213e-06
4.3213e-06
4.3213e-06
4.3213e-06
4.3213e-06
4.3213e-06
4.3213e-06
4.3213e-06
4.3213e-06
4.3213e-06
4.3213e-06
4.3213e-06
4.3213e-06
4.3213e-06
4.3213e-06
4.3213e-06
4.3213e-06
4.3213e-06
4.3213e-06
4.3213e-06
4.3213e-06
4.3213e-06
4.3213e-06
4.3213e-06
4.3213e-06
4.3213e-06
4.3213e-06
4.3213e-06
4.3213e-06
4.3213e-06
4.3213e-06
4.3213e-06
4.3213e-06
4.3213e-06
4.3213e-06
4.3213e-06
4.3213e-06
4.3213e-06
4.3213e-06
4.2969e-06
4.3213e-06
4.3213e-06
4.3213e-06
4.2969e-06
4.3213e-06
4.3213e-06
4.2969e-06
4.3213e-06
4.3213e-06
4.3213e-06
4.2969e-06
4.2969e-06
4.3213e-06
4.2969e-06
4.2969e-06
4.2969e-06
4.2969e-06
4.3213e-06
4.2969e-06
4.2969e-06
4.2969e-06
4.2969e-06
4.2969e-06
4.2969e-06
4.2969e-06
4.2969e-06
4.2969e-06
4.2969e-06
4.2969e-06
4.2969e-06
4.2969e-06
4.2969e-06
4.2969e-06
4.2969e-06
4.2969e-06
4.2969e-06
4.2969e-06
4.2969e-06
4.2969e-06
4.2725e-06
4.2725e-06
4.2969e-06
4.2969e-06
4.2725e-06
4.2725e-06
4.2725e-06
4.2725e-06
4.2725e-06
4.2725e-06
4.2969e-06
4.2725e-06
4.2725e-06
4.2725e-06
4.2969e-06
4.2725e-06
4.2725e-06
4.2725e-06
4.2725e-06
4.2725e-06
4.2725e-06
4.2725e-06
4.2725e-06
4.2725e-06
4.2725e-06
4.2725e-06
4.2725e-06
4.2725e-06
4.2725e-06
4.2725e-06
4.248e-06
4.2725e-06
4.2725e-06
4.2725e-06
4.2725e-06
4.248e-06
4.2725e-06
4.2725e-06
4.2725e-06
4.248e-06
4.248e-06
4.248e-06
4.2725e-06
4.2725e-06
4.2725e-06
4.2725e-06
4.2725e-06
4.248e-06
4.248e-06
4.248e-06
4.2725e-06
4.248e-06
4.2725e-06
4.2725e-06
4.248e-06
4.248e-06
4.2725e-06
4.248e-06
4.2725e-06
4.248e-06
4.248e-06
4.248e-06
4.248e-06
4.248e-06
4.248e-06
4.248e-06
4.248e-06
4.248e-06
4.248e-06
4.248e-06
4.248e-06
4.248e-06
4.2725e-06
4.2725e-06
4.248e-06
4.248e-06
4.2725e-06
4.2725e-06
4.2725e-06
4.2725e-06
4.2725e-06
4.2725e-06
4.2725e-06
4.2725e-06
4.2725e-06
4.2725e-06
4.248e-06
4.2725e-06
4.2725e-06
4.2725e-06
4.2725e-06
4.2725e-06
4.2725e-06
4.2725e-06
4.2725e-06
4.2725e-06
4.2969e-06
4.2725e-06
4.2969e-06
4.2725e-06
4.2969e-06
4.2969e-06
4.2969e-06
4.2969e-06
4.2969e-06
4.2969e-06
4.2969e-06
4.2969e-06
4.3213e-06
4.3213e-06
4.3213e-06
4.3213e-06
4.3213e-06
4.3457e-06
4.3213e-06
4.3213e-06
4.3457e-06
4.3457e-06
4.3457e-06
4.3457e-06
4.3457e-06
4.3701e-06
4.3457e-06
4.3701e-06
4.3701e-06
4.3701e-06
4.3701e-06
4.3701e-06
4.3701e-06
4.3945e-06
4.3945e-06
4.3945e-06
4.3945e-06
4.4189e-06
4.3945e-06
4.4189e-06
4.4189e-06
4.4189e-06
4.4434e-06
4.4434e-06
4.4189e-06
4.4434e-06
4.4434e-06
4.4434e-06
4.4434e-06
4.4678e-06
4.4434e-06
4.4678e-06
4.4678e-06
4.4678e-06
4.4678e-06
4.4678e-06
4.4678e-06
4.4922e-06
4.4922e-06
4.4922e-06
4.4922e-06
4.5166e-06
4.4922e-06
4.4922e-06
4.5166e-06
4.5166e-06
4.5166e-06
4.5166e-06
4.5166e-06
4.5166e-06
4.5166e-06
4.5166e-06
4.5166e-06
4.541e-06
4.541e-06
4.541e-06
4.541e-06
4.5654e-06
4.541e-06
4.541e-06
4.5654e-06
4.5654e-06
4.5654e-06
4.5654e-06
4.5654e-06
4.5654e-06
4.5654e-06
4.5654e-06
4.5654e-06
4.5898e-06
4.5898e-06
4.5898e-06
4.5898e-06
4.5898e-06
4.5898e-06
4.5898e-06
4.5898e-06
4.5898e-06
4.5898e-06
4.5898e-06
4.5898e-06
4.5898e-06
4.5898e-06
4.5898e-06
4.5898e-06
4.6143e-06
4.6143e-06
4.6143e-06
4.6143e-06
4.5898e-06
4.5898e-06
4.6143e-06
4.5898e-06
4.6143e-06
4.6143e-06
4.6143e-06
4.6143e-06
4.6143e-06
4.6143e-06
4.6143e-06
4.6143e-06
4.6143e-06
4.6143e-06
4.6143e-06
4.6387e-06
4.6387e-06
4.6387e-06
4.6143e-06
4.6387e-06
4.6387e-06
4.6387e-06
4.6387e-06
4.6387e-06
4.6387e-06
4.6387e-06
4.6387e-06
4.6387e-06
4.6387e-06
4.6387e-06
4.6387e-06
4.6387e-06
4.6387e-06
4.6387e-06
4.6387e-06
4.6387e-06
4.6387e-06
4.6387e-06
4.6387e-06
4.6387e-06
4.6387e-06
4.6387e-06
4.6387e-06
4.6387e-06
4.6387e-06
4.6387e-06
4.6143e-06
4.6387e-06
4.6387e-06
4.6387e-06
4.6387e-06
4.6143e-06
4.6143e-06
4.6143e-06
4.6143e-06
4.6387e-06
4.6387e-06
4.6387e-06
4.6143e-06
4.6387e-06
4.6387e-06
4.6143e-06
4.6143e-06
4.6143e-06
4.6143e-06
4.6143e-06
4.6143e-06
4.6143e-06
4.6143e-06
4.6143e-06
4.6143e-06
4.6143e-06
4.6143e-06
4.6143e-06
4.5898e-06
4.5898e-06
4.5898e-06
4.6143e-06
4.5898e-06
4.5898e-06
4.5898e-06
4.5898e-06
4.5898e-06
4.5898e-06
4.5898e-06
4.5898e-06
4.5898e-06
4.5898e-06
4.5898e-06
4.5898e-06
4.5898e-06
4.5898e-06
4.5898e-06
4.5898e-06
4.5898e-06
4.5654e-06
4.5898e-06
4.5654e-06
4.5654e-06
4.5654e-06
4.5654e-06
4.5654e-06
4.5654e-06
4.5654e-06
4.5654e-06
4.5654e-06
4.5654e-06
4.5654e-06
4.5654e-06
4.541e-06
4.5654e-06
4.5654e-06
4.5654e-06
4.5654e-06
4.541e-06
4.541e-06
4.5654e-06
4.541e-06
4.541e-06
4.541e-06
4.541e-06
4.541e-06
4.5166e-06
4.541e-06
4.5166e-06
4.5166e-06
4.5166e-06
4.5166e-06
4.5166e-06
4.5166e-06
4.5166e-06
4.5166e-06
4.5166e-06
4.5166e-06
4.5166e-06
4.4922e-06
4.5166e-06
4.5166e-06
4.4922e-06
4.4922e-06
4.4922e-06
4.4922e-06
4.4922e-06
4.4922e-06
4.4922e-06
4.4922e-06
4.4922e-06
4.4922e-06
4.4922e-06
4.4922e-06
4.4922e-06
4.4922e-06
4.4922e-06
4.4678e-06
4.4678e-06
4.4678e-06
4.4678e-06
4.4678e-06
4.4678e-06
4.4678e-06
4.4434e-06
4.4678e-06
4.4678e-06
4.4678e-06
4.4434e-06
4.4434e-06
4.4678e-06
4.4678e-06
4.4434e-06
4.4678e-06
4.4434e-06
4.4434e-06
4.4434e-06
4.4434e-06
4.4434e-06
4.4434e-06
4.4434e-06
4.4434e-06
4.4189e-06
4.4434e-06
4.4434e-06
4.4434e-06
4.4434e-06
4.4434e-06
4.4189e-06
4.4189e-06
4.4189e-06
4.4189e-06
4.4189e-06
4.4189e-06
4.4189e-06
4.4189e-06
4.4189e-06
4.4189e-06
4.4189e-06
4.4189e-06
4.4189e-06
4.4189e-06
4.4189e-06
4.4189e-06
4.3945e-06
4.3945e-06
4.3945e-06
4.4189e-06
4.3945e-06
4.3945e-06
4.3945e-06
4.3945e-06
4.3945e-06
4.3945e-06
4.3945e-06
4.3945e-06
4.3945e-06
4.3945e-06
4.3945e-06
4.3701e-06
4.3945e-06
4.3945e-06
4.3945e-06
4.3945e-06
4.3945e-06
4.3701e-06
4.3701e-06
4.3701e-06
4.3701e-06
4.3701e-06
4.3701e-06
4.3701e-06
4.3701e-06
4.3701e-06
4.3701e-06
4.3701e-06
4.3701e-06
4.3701e-06
4.3701e-06
4.3701e-06
4.3701e-06
4.3701e-06
4.3701e-06
4.3701e-06
4.3701e-06
4.3701e-06
4.3701e-06
4.3701e-06
4.3701e-06
4.3457e-06
4.3457e-06
4.3701e-06
4.3701e-06
4.3701e-06
4.3457e-06
4.3701e-06
4.3701e-06
4.3457e-06
4.3457e-06
4.3457e-06
4.3701e-06
4.3701e-06
4.3457e-06
4.3457e-06
4.3457e-06
4.3701e-06
4.3457e-06
4.3457e-06
4.3457e-06
4.3457e-06
4.3457e-06
4.3457e-06
4.3457e-06
4.3457e-06
4.3213e-06
4.3457e-06
4.3457e-06
4.3457e-06
4.3457e-06
4.3213e-06
4.3457e-06
4.3213e-06
4.3213e-06
4.3457e-06
4.3457e-06
4.3457e-06
4.3457e-06
4.3457e-06
4.3457e-06
4.3457e-06
4.3213e-06
4.3213e-06
4.3457e-06
4.3213e-06
4.3213e-06
4.3213e-06
4.3213e-06
4.3213e-06
4.3213e-06
4.3213e-06
4.3213e-06
4.3213e-06
4.3213e-06
4.3213e-06
4.3213e-06
4.3213e-06
4.3213e-06
4.3213e-06
4.3213e-06
4.3213e-06
4.3213e-06
4.3213e-06
4.3213e-06
4.3213e-06
4.3213e-06
4.3213e-06
4.3213e-06
4.3213e-06
4.3213e-06
4.3213e-06
4.3213e-06
4.3213e-06
4.3213e-06
4.3213e-06
4.3213e-06
4.2969e-06
4.3213e-06
4.3213e-06
4.2969e-06
4.3213e-06
4.3213e-06
4.3213e-06
4.3213e-06
4.3213e-06
4.3213e-06
4.3213e-06
4.3213e-06
4.2969e-06
4.2969e-06
4.3213e-06
4.3213e-06
4.3213e-06
4.2969e-06
4.2969e-06
4.2969e-06
4.2969e-06
4.3213e-06
4.3213e-06
4.3213e-06
4.2969e-06
4.2969e-06
4.2969e-06
4.2969e-06
4.2969e-06
4.2969e-06
4.3213e-06
4.3213e-06
4.3213e-06
4.3213e-06
4.2969e-06
4.2969e-06
4.2969e-06
4.2969e-06
4.2969e-06
4.3213e-06
4.2969e-06
4.2969e-06
4.2969e-06
4.3213e-06
4.3213e-06
4.2969e-06
4.2969e-06
4.3213e-06
4.2969e-06
4.3213e-06
4.2969e-06
4.3213e-06
4.3213e-06
4.2969e-06
4.3213e-06
4.3213e-06
4.3213e-06
4.2969e-06
4.3213e-06
4.3213e-06
4.2969e-06
4.3213e-06
4.3213e-06
4.2969e-06
4.3213e-06
4.2969e-06
4.3213e-06
4.3213e-06
4.3213e-06
4.3213e-06
4.2969e-06
4.2969e-06
4.3213e-06
4.3213e-06
4.2969e-06
4.3213e-06
4.3213e-06
4.3213e-06
4.3213e-06
4.2969e-06
4.3213e-06
4.3213e-06
4.3213e-06
4.2969e-06
4.3213e-06
4.3213e-06
4.3213e-06
4.3213e-06
4.3213e-06
4.3213e-06
4.3213e-06
4.3213e-06
4.3213e-06
4.2969e-06
4.3213e-06
4.3213e-06
4.3213e-06
4.3213e-06
4.3213e-06
4.3213e-06
4.3213e-06
4.3213e-06
4.3213e-06
4.3213e-06
4.3213e-06
4.3213e-06
4.3213e-06
4.3213e-06
4.3213e-06
4.3213e-06
4.3457e-06
4.3213e-06
4.3457e-06
4.3213e-06
4.3457e-06
4.3457e-06
4.3457e-06
4.3213e-06
4.3457e-06
4.3457e-06
4.3457e-06
4.3457e-06
4.3701e-06
4.3701e-06
4.3701e-06
4.3701e-06
4.3701e-06
4.3701e-06
4.3701e-06
4.3701e-06
4.3701e-06
4.3701e-06
4.3701e-06
4.3701e-06
4.3701e-06
4.3945e-06
4.3945e-06
4.3945e-06
4.3945e-06
4.3945e-06
4.3945e-06
4.3945e-06
4.3945e-06
4.3945e-06
4.4189e-06
4.4189e-06
4.4189e-06
4.4189e-06
4.4434e-06
4.4189e-06
4.4434e-06
4.4434e-06
4.4434e-06
4.4434e-06
4.4434e-06
4.4434e-06
4.4678e-06
4.4678e-06
4.4678e-06
4.4678e-06
4.4678e-06
4.4678e-06
4.4922e-06
4.4922e-06
4.4922e-06
4.4922e-06
4.4922e-06
4.4922e-06
4.4922e-06
4.4922e-06
4.4922e-06
4.4922e-06
4.5166e-06
4.5166e-06
4.5166e-06
4.5166e-06
4.5166e-06
4.541e-06
4.541e-06
4.541e-06
4.541e-06
4.541e-06
4.541e-06
4.541e-06
4.5654e-06
4.5654e-06
4.5654e-06
4.5654e-06
4.5654e-06
4.5654e-06
4.5654e-06
4.5654e-06
4.5898e-06
4.5898e-06
4.5654e-06
4.5898e-06
4.5898e-06
4.5898e-06
4.5898e-06
4.5898e-06
4.5898e-06
4.5898e-06
4.5898e-06
4.6143e-06
4.6143e-06
4.6143e-06
4.6143e-06
4.6143e-06
4.6143e-06
4.6143e-06
4.6387e-06
4.6387e-06
4.6387e-06
4.6387e-06
4.6387e-06
4.6387e-06
4.6631e-06
4.6631e-06
4.6631e-06
4.6631e-06
4.6631e-06
4.6631e-06
4.6631e-06
4.6631e-06
4.6631e-06
4.6631e-06
4.6631e-06
4.6631e-06
4.6631e-06
4.6631e-06
4.6631e-06
4.6631e-06
4.6875e-06
4.6631e-06
4.6631e-06
4.6631e-06
4.6875e-06
4.6631e-06
4.6631e-06
4.6875e-06
4.6631e-06
4.6631e-06
4.6875e-06
4.6875e-06
4.6875e-06
4.6631e-06
4.6631e-06
4.6875e-06
4.6631e-06
4.6631e-06
4.6631e-06
4.6875e-06
4.6875e-06
4.6631e-06
4.6631e-06
4.6875e-06
4.6875e-06
4.6631e-06
4.6631e-06
4.6631e-06
4.6631e-06
4.6631e-06
4.6631e-06
4.6631e-06
4.6631e-06
4.6631e-06
4.6631e-06
4.6631e-06
4.6631e-06
4.6631e-06
4.6631e-06
4.6631e-06
4.6631e-06
4.6631e-06
4.6631e-06
4.6631e-06
4.6631e-06
4.6631e-06
4.6631e-06
4.6631e-06
4.6631e-06
4.6631e-06
4.6631e-06
4.6631e-06
4.6631e-06
4.6387e-06
4.6631e-06
4.6631e-06
4.6387e-06
4.6631e-06
4.6631e-06
4.6387e-06
4.6631e-06
4.6387e-06
4.6387e-06
4.6387e-06
4.6387e-06
4.6387e-06
4.6387e-06
4.6387e-06
4.6387e-06
4.6387e-06
4.6387e-06
4.6387e-06
4.6143e-06
4.6387e-06
4.6387e-06
4.6143e-06
4.6143e-06
4.6143e-06
4.6143e-06
4.6143e-06
4.6143e-06
4.6143e-06
4.6143e-06
4.6143e-06
4.6143e-06
4.6143e-06
4.6143e-06
4.6143e-06
4.5898e-06
4.5898e-06
4.5898e-06
4.5898e-06
4.5898e-06
4.5898e-06
4.5898e-06
4.5898e-06
4.5898e-06
4.5898e-06
4.5898e-06
4.5898e-06
4.5898e-06
4.5898e-06
4.5898e-06
4.5898e-06
4.5898e-06
4.5898e-06
4.5654e-06
4.5898e-06
4.5654e-06
4.5654e-06
4.5654e-06
4.5654e-06
4.5654e-06
4.5654e-06
4.5654e-06
4.5654e-06
4.5654e-06
4.5654e-06
4.5654e-06
4.5654e-06
4.541e-06
4.541e-06
4.541e-06
4.541e-06
4.541e-06
4.541e-06
4.541e-06
4.541e-06
4.541e-06
4.541e-06
4.5166e-06
4.541e-06
4.541e-06
4.541e-06
4.541e-06
4.541e-06
4.5166e-06
4.5166e-06
4.5166e-06
4.5166e-06
4.5166e-06
4.5166e-06
4.5166e-06
4.5166e-06
4.5166e-06
4.5166e-06
4.5166e-06
4.4922e-06
4.4922e-06
4.4922e-06
4.5166e-06
4.5166e-06
4.5166e-06
4.4922e-06
4.4922e-06
4.5166e-06
4.4922e-06
4.4922e-06
4.4922e-06
4.4922e-06
4.4922e-06
4.4922e-06
4.4922e-06
4.4922e-06
4.4922e-06
4.4922e-06
4.4922e-06
4.4922e-06
4.4922e-06
4.4922e-06
4.4922e-06
4.4922e-06
4.4922e-06
4.4922e-06
4.4922e-06
4.4922e-06
4.4922e-06
4.4922e-06
4.4678e-06
4.4922e-06
4.4678e-06
4.4922e-06
4.4922e-06
4.4922e-06
4.4678e-06
4.4678e-06
4.4922e-06
4.4678e-06
4.4678e-06
4.4678e-06
4.4678e-06
4.4678e-06
4.4678e-06
4.4678e-06
4.4678e-06
4.4678e-06
4.4678e-06
4.4678e-06
4.4678e-06
4.4678e-06
4.4678e-06
4.4678e-06
4.4678e-06
4.4678e-06
4.4678e-06
4.4678e-06
4.4678e-06
4.4678e-06
4.4678e-06
4.4434e-06
4.4678e-06
4.4678e-06
4.4434e-06
4.4678e-06
4.4678e-06
4.4678e-06
4.4434e-06
4.4678e-06
4.4434e-06
4.4678e-06
4.4434e-06
4.4678e-06
4.4678e-06
4.4678e-06
4.4678e-06
4.4678e-06
4.4434e-06
4.4678e-06
4.4434e-06
4.4678e-06
4.4434e-06
4.4678e-06
4.4434e-06
4.4678e-06
4.4678e-06
4.4678e-06
4.4678e-06
4.4678e-06
4.4678e-06
4.4922e-06
4.4678e-06
4.4678e-06
4.4922e-06
4.4678e-06
4.4922e-06
4.4922e-06
4.4922e-06
4.4922e-06
4.4922e-06
4.4922e-06
4.4922e-06
4.4922e-06
4.4922e-06
4.4922e-06
4.4922e-06
4.4922e-06
4.4922e-06
4.4922e-06
4.4678e-06
4.4922e-06
4.4922e-06
4.4922e-06
4.4922e-06
4.4922e-06
4.4922e-06
4.4922e-06
4.4922e-06
4.4922e-06
4.4922e-06
4.4922e-06
4.4922e-06
4.4922e-06
4.4922e-06
4.4922e-06
4.4922e-06
4.4922e-06
4.5166e-06
4.4922e-06
4.5166e-06
4.4922e-06
4.4922e-06
4.4922e-06
4.5166e-06
4.4922e-06
4.5166e-06
4.4922e-06
4.4922e-06
4.4922e-06
4.4922e-06
4.4922e-06
4.4922e-06
4.4922e-06
4.4922e-06
4.4922e-06
4.4922e-06
4.5166e-06
4.4922e-06
4.5166e-06
4.5166e-06
4.4922e-06
4.5166e-06
4.4922e-06
4.4922e-06
4.4922e-06
4.4922e-06
4.5166e-06
4.4922e-06
4.5166e-06
4.4922e-06
4.4922e-06
4.4922e-06
4.4922e-06
4.4922e-06
4.4922e-06
4.4922e-06
4.4922e-06
4.5166e-06
4.4922e-06
4.4922e-06
4.4922e-06
4.5166e-06
4.4922e-06
4.5166e-06
4.4922e-06
4.5166e-06
4.5166e-06
4.5166e-06
4.4922e-06
4.5166e-06
4.5166e-06
4.5166e-06
4.5166e-06
4.5166e-06
4.5166e-06
4.5166e-06
4.5166e-06
4.5166e-06
4.5166e-06
4.5166e-06
4.5166e-06
4.5166e-06
4.5166e-06
4.5166e-06
4.5166e-06
4.5166e-06
4.5166e-06
4.5166e-06
4.5166e-06
4.5166e-06
4.5166e-06
4.5166e-06
4.541e-06
4.541e-06
4.5166e-06
4.541e-06
4.5166e-06
4.541e-06
4.541e-06
4.5166e-06
4.541e-06
4.541e-06
4.541e-06
4.541e-06
4.541e-06
4.541e-06
4.541e-06
4.541e-06
4.541e-06
4.541e-06
4.541e-06
4.541e-06
4.541e-06
4.541e-06
4.541e-06
4.5654e-06
4.5654e-06
4.5654e-06
4.541e-06
4.541e-06
4.5654e-06
4.5654e-06
4.5654e-06
4.5654e-06
4.5654e-06
4.5654e-06
4.541e-06
4.541e-06
4.5654e-06
4.5654e-06
4.5654e-06
4.5654e-06
4.5654e-06
4.5654e-06
4.5654e-06
4.5654e-06
4.5654e-06
4.5654e-06
4.5654e-06
4.5654e-06
4.5898e-06
4.5654e-06
4.5654e-06
4.5654e-06
4.5898e-06
4.5898e-06
4.5654e-06
4.5654e-06
4.5898e-06
4.5898e-06
4.5898e-06
4.5898e-06
4.5898e-06
4.5898e-06
4.5898e-06
4.5898e-06
4.5898e-06
4.5654e-06
4.5654e-06
4.5898e-06
4.5898e-06
4.5898e-06
4.5898e-06
4.5898e-06
4.5898e-06
4.5898e-06
4.5898e-06
4.5898e-06
4.5898e-06
4.5898e-06
4.5898e-06
4.5898e-06
4.5898e-06
4.5898e-06
4.5898e-06
4.5898e-06
4.5898e-06
4.5898e-06
4.5898e-06
4.5898e-06
4.5898e-06
4.5898e-06
4.5898e-06
4.5898e-06
4.5898e-06
4.5898e-06
4.5898e-06
4.5898e-06
4.5898e-06
4.5898e-06
4.5898e-06
4.5898e-06
4.5898e-06
4.5898e-06
4.5898e-06
4.5898e-06
4.5898e-06
4.5898e-06
4.5898e-06
4.5898e-06
4.5898e-06
4.5898e-06
4.5898e-06
4.5898e-06
4.5898e-06
4.5898e-06
4.5898e-06
4.5898e-06
4.5898e-06
4.5898e-06
4.5898e-06
4.5898e-06
4.5898e-06
4.6143e-06
4.5898e-06
4.5898e-06
4.6143e-06
4.5898e-06
4.5898e-06
4.5898e-06
4.6143e-06
4.5898e-06
4.5898e-06
4.5898e-06
4.5898e-06
4.5898e-06
4.5898e-06
4.5898e-06
4.5898e-06
4.5898e-06
4.5898e-06
4.5898e-06
4.5898e-06
4.5898e-06
4.5898e-06
4.5898e-06
4.5898e-06
4.5898e-06
4.5898e-06
4.5898e-06
4.5898e-06
4.5898e-06
4.5898e-06
4.5898e-06
4.5898e-06
4.5898e-06
4.5898e-06
4.5898e-06
4.5898e-06
4.5898e-06
4.5898e-06
4.5898e-06
4.5898e-06
4.5898e-06
4.5898e-06
4.5898e-06
4.6143e-06
4.5898e-06
4.6143e-06
4.5898e-06
4.6143e-06
4.6143e-06
4.6143e-06
4.5898e-06
4.6143e-06
4.5898e-06
4.6143e-06
4.5898e-06
4.6143e-06
4.6143e-06
4.5898e-06
4.6143e-06
4.5898e-06
4.6143e-06
4.5898e-06
4.6143e-06
4.6143e-06
4.6143e-06
4.6143e-06
4.5898e-06
4.5898e-06
4.6143e-06
4.5898e-06
4.5898e-06
4.6143e-06
4.5898e-06
4.5898e-06
4.5898e-06
4.5898e-06
4.5898e-06
4.5898e-06
4.5898e-06
4.5898e-06
4.5898e-06
4.5898e-06
4.5898e-06
4.5898e-06
4.5898e-06
4.5898e-06
4.5898e-06
4.5898e-06
4.5898e-06
4.5898e-06
4.5898e-06
4.5898e-06
4.5898e-06
4.5898e-06
4.5898e-06
4.5898e-06
4.5898e-06
4.5898e-06
4.5898e-06
4.5898e-06
4.5898e-06
4.5898e-06
4.5898e-06
4.5898e-06
4.5898e-06
4.5898e-06
4.5898e-06
4.5898e-06
4.5898e-06
4.5898e-06
4.5898e-06
4.5898e-06
4.5898e-06
4.5898e-06
4.5898e-06
4.5898e-06
4.5898e-06
4.5898e-06
4.5898e-06
4.5898e-06
4.5898e-06
4.5898e-06
4.5898e-06
4.5898e-06
4.5898e-06
4.5898e-06
4.5898e-06
4.5898e-06
4.5898e-06
4.5898e-06
4.5898e-06
4.5898e-06
4.5898e-06
4.5898e-06
4.5898e-06
4.5898e-06
4.5898e-06
4.5898e-06
4.5898e-06
4.5898e-06
4.5898e-06
4.5898e-06
4.5898e-06
4.5898e-06
4.5898e-06
4.5898e-06
4.5898e-06
4.5898e-06
4.5898e-06
4.5898e-06
4.5898e-06
4.5898e-06
4.5898e-06
4.5898e-06
4.5898e-06
4.5898e-06
4.5898e-06
4.5898e-06
4.5898e-06
4.5898e-06
4.5898e-06
4.5898e-06
4.5898e-06
4.5898e-06
4.5898e-06
4.5898e-06
4.5898e-06
4.5898e-06
4.5898e-06
4.5898e-06
4.5898e-06
4.5898e-06
4.5898e-06
4.5898e-06
4.5898e-06
4.5898e-06
4.5898e-06
4.5898e-06
4.5898e-06
4.5898e-06
4.5898e-06
4.5898e-06
4.5898e-06
4.5898e-06
4.5898e-06
4.5898e-06
4.5898e-06
4.5898e-06
4.5898e-06
4.5898e-06
4.5898e-06
4.5898e-06
4.5898e-06
4.5898e-06
4.5898e-06
4.5898e-06
4.5898e-06
4.5898e-06
4.5898e-06
4.5898e-06
4.5898e-06
4.5898e-06
4.5898e-06
4.5898e-06
4.5898e-06
4.5898e-06
4.5898e-06
4.5898e-06
4.5898e-06
4.5898e-06
4.5898e-06
4.5898e-06
4.5898e-06
4.5898e-06
4.5898e-06
4.5898e-06
4.6143e-06
4.5898e-06
4.5898e-06
4.5898e-06
4.5898e-06
4.5898e-06
4.5898e-06
4.6143e-06
4.5898e-06
4.5898e-06
4.5898e-06
4.6143e-06
4.5898e-06
4.6143e-06
4.5898e-06
4.6143e-06
4.6143e-06
4.5898e-06
4.6143e-06
4.6143e-06
4.5898e-06
4.6143e-06
4.6143e-06
4.6143e-06
4.5898e-06
4.6143e-06
4.6143e-06
4.6143e-06
4.5898e-06
4.5898e-06
4.5898e-06
4.6143e-06
4.5898e-06
4.6143e-06
4.6143e-06
4.5898e-06
4.6143e-06
4.6143e-06
4.5898e-06
4.6143e-06
4.6143e-06
4.5898e-06
4.5898e-06
4.5898e-06
4.6143e-06
4.6143e-06
4.5898e-06
4.6143e-06
4.6143e-06
4.6143e-06
4.5898e-06
4.6143e-06
4.6143e-06
4.6143e-06
4.6143e-06
4.6143e-06
4.6143e-06
4.6143e-06
4.6143e-06
4.6143e-06
4.6143e-06
4.6143e-06
4.6143e-06
4.6143e-06
4.6143e-06
4.6143e-06
4.6143e-06
4.6143e-06
4.6143e-06
4.6143e-06
4.6143e-06
4.6143e-06
4.6143e-06
4.6143e-06
4.6143e-06
4.6143e-06
4.6143e-06
4.6143e-06
4.6143e-06
4.6143e-06
4.6143e-06
4.6143e-06
4.6143e-06
4.6143e-06
4.6143e-06
4.6143e-06
4.6143e-06
4.6143e-06
4.6143e-06
4.6143e-06
4.6143e-06
4.6143e-06
4.6143e-06
4.6143e-06
4.6143e-06
4.6143e-06
4.6143e-06
4.6143e-06
4.6143e-06
4.6143e-06
4.6143e-06
4.6143e-06
4.6143e-06
4.6143e-06
4.6143e-06
4.6143e-06
4.6143e-06
4.6143e-06
4.6143e-06
4.6143e-06
4.6143e-06
4.6143e-06
4.6143e-06
4.6143e-06
4.6143e-06
4.6143e-06
4.6143e-06
4.6143e-06
4.6143e-06
4.6143e-06
4.6143e-06
4.6143e-06
4.6143e-06
4.6143e-06
4.6143e-06
4.6143e-06
4.6143e-06
4.6143e-06
4.6143e-06
4.6143e-06
4.6143e-06
4.6143e-06
4.6143e-06
4.6387e-06
4.6143e-06
4.6143e-06
4.6143e-06
4.6143e-06
4.6143e-06
4.6143e-06
4.6143e-06
4.6143e-06
4.6143e-06
4.6143e-06
4.6143e-06
4.6143e-06
4.6387e-06
4.6143e-06
4.6387e-06
4.6143e-06
4.6143e-06
4.6387e-06
4.6143e-06
4.6143e-06
4.6143e-06
4.6143e-06
4.6387e-06
4.6143e-06
4.6387e-06
4.6143e-06
4.6387e-06
4.6387e-06
4.6143e-06
4.6387e-06
4.6387e-06
4.6143e-06
4.6387e-06
4.6143e-06
4.6387e-06
4.6387e-06
4.6143e-06
4.6387e-06
4.6387e-06
4.6143e-06
4.6143e-06
4.6387e-06
4.6387e-06
4.6143e-06
4.6387e-06
4.6143e-06
4.6387e-06
4.6387e-06
4.6387e-06
4.6143e-06
4.6387e-06
4.6387e-06
4.6387e-06
4.6387e-06
4.6387e-06
4.6387e-06
4.6387e-06
4.6387e-06
4.6387e-06
4.6387e-06
4.6387e-06
4.6387e-06
4.6631e-06
4.6631e-06
4.6387e-06
4.6631e-06
4.6387e-06
4.6631e-06
4.6631e-06
4.6631e-06
4.6387e-06
4.6387e-06
4.6631e-06
4.6631e-06
4.6631e-06
4.6631e-06
4.6387e-06
4.6631e-06
4.6387e-06
4.6631e-06
4.6631e-06
4.6387e-06
4.6631e-06
4.6631e-06
4.6631e-06
4.6631e-06
4.6387e-06
4.6631e-06
4.6631e-06
4.6631e-06
4.6387e-06
4.6631e-06
4.6631e-06
4.6631e-06
4.6631e-06
4.6631e-06
4.6631e-06
4.6631e-06
4.6631e-06
4.6631e-06
4.6631e-06
4.6631e-06
4.6631e-06
4.6631e-06
4.6631e-06
4.6631e-06
4.6631e-06
4.6631e-06
4.6875e-06
4.6875e-06
4.6631e-06
4.6631e-06
4.6875e-06
4.6875e-06
4.6631e-06
4.6875e-06
4.6631e-06
4.6875e-06
4.6875e-06
4.6875e-06
4.6631e-06
4.6631e-06
4.6631e-06
4.6875e-06
4.6875e-06
4.6875e-06
4.6875e-06
4.6875e-06
4.6875e-06
4.6875e-06
4.6631e-06
4.6875e-06
4.6875e-06
4.6875e-06
4.6875e-06
4.6875e-06
4.6875e-06
4.6875e-06
4.6875e-06
4.6875e-06
4.6875e-06
4.6875e-06
4.6875e-06
4.6875e-06
4.6875e-06
4.6875e-06
4.6875e-06
4.6875e-06
4.6875e-06
4.6875e-06
4.6875e-06
4.6875e-06
4.6875e-06
4.6875e-06
4.6875e-06
4.6875e-06
4.6875e-06
4.6875e-06
4.6875e-06
4.6875e-06
4.6875e-06
4.6875e-06
4.6631e-06
4.6875e-06
4.6631e-06
4.6875e-06
4.6875e-06
4.6875e-06
4.6875e-06
4.6875e-06
4.6875e-06
4.6631e-06
4.6631e-06
4.6875e-06
4.6875e-06
4.6875e-06
4.6875e-06
4.6875e-06
4.6875e-06
4.6875e-06
4.6631e-06
4.6875e-06
4.6875e-06
4.6875e-06
4.6875e-06
4.6875e-06
4.6875e-06
4.6875e-06
4.6875e-06
4.6875e-06
4.6631e-06
4.6875e-06
4.6875e-06
4.6875e-06
4.6875e-06
4.6875e-06
4.6631e-06
4.6875e-06
4.6875e-06
4.6875e-06
4.6875e-06
4.6875e-06
4.6875e-06
4.6875e-06
4.6875e-06
4.6875e-06
4.6631e-06
4.6631e-06
4.6875e-06
4.6875e-06
4.6875e-06
4.6875e-06
4.6631e-06
4.6875e-06
4.6875e-06
4.6875e-06
4.6631e-06
4.6875e-06
4.6875e-06
4.6875e-06
4.6875e-06
4.6875e-06
4.6875e-06
4.6875e-06
4.6631e-06
4.6875e-06
4.6875e-06
4.6631e-06
4.6631e-06
4.6631e-06
4.6631e-06
4.6631e-06
4.6631e-06
4.6875e-06
4.6875e-06
4.6875e-06
4.6875e-06
4.6631e-06
4.6631e-06
4.6875e-06
4.6631e-06
4.6875e-06
4.6875e-06
4.6875e-06
4.6631e-06
4.6875e-06
4.6631e-06
4.6631e-06
4.6631e-06
4.6875e-06
4.6631e-06
4.6875e-06
4.6631e-06
4.6875e-06
4.6631e-06
4.6631e-06
4.6631e-06
4.6631e-06
4.6631e-06
4.6631e-06
4.6631e-06
4.6631e-06
4.6631e-06
4.6631e-06
4.6631e-06
4.6631e-06
4.6631e-06
4.6631e-06
4.6631e-06
4.6631e-06
4.6631e-06
4.6631e-06
4.6631e-06
4.6631e-06
4.6631e-06
4.6631e-06
4.6631e-06
4.6631e-06
4.6631e-06
4.6631e-06
4.6631e-06
4.6631e-06
4.6631e-06
4.6631e-06
4.6631e-06
4.6631e-06
4.6631e-06
4.6631e-06
4.6631e-06
4.6631e-06
4.6631e-06
4.6631e-06
4.6631e-06
4.6631e-06
4.6631e-06
4.6631e-06
4.6631e-06
4.6631e-06
4.6631e-06
4.6631e-06
4.6631e-06
4.6631e-06
4.6631e-06
4.6631e-06
4.6631e-06
4.6631e-06
4.6631e-06
4.6631e-06
4.6631e-06
4.6631e-06
4.6631e-06
4.6631e-06
4.6631e-06
4.6631e-06
4.6631e-06
4.6631e-06
4.6631e-06
4.6631e-06
4.6631e-06
4.6631e-06
4.6631e-06
4.6631e-06
4.6387e-06
4.6631e-06
4.6631e-06
4.6631e-06
4.6631e-06
4.6631e-06
4.6631e-06
4.6631e-06
4.6631e-06
4.6631e-06
4.6631e-06
4.6631e-06
4.6631e-06
4.6631e-06
4.6631e-06
4.6631e-06
4.6631e-06
4.6631e-06
4.6631e-06
4.6631e-06
4.6631e-06
4.6631e-06
4.6631e-06
4.6631e-06
4.6631e-06
4.6631e-06
4.6631e-06
4.6631e-06
4.6631e-06
4.6631e-06
4.6631e-06
4.6631e-06
4.6631e-06
4.6631e-06
4.6631e-06
4.6631e-06
4.6631e-06
4.6631e-06
4.6631e-06
4.6631e-06
4.6631e-06
4.6631e-06
4.6631e-06
4.6631e-06
4.6631e-06
4.6631e-06
4.6631e-06
4.6631e-06
4.6631e-06
4.6631e-06
4.6631e-06
4.6631e-06
4.6631e-06
4.6631e-06
4.6631e-06
4.6631e-06
4.6631e-06
4.6631e-06
4.6631e-06
4.6631e-06
4.6631e-06
4.6631e-06
4.6631e-06
4.6631e-06
4.6631e-06
4.6631e-06
4.6631e-06
4.6631e-06
4.6631e-06
4.6631e-06
4.6631e-06
4.6631e-06
4.6631e-06
4.6875e-06
4.6631e-06
4.6875e-06
4.6631e-06
4.6875e-06
4.6631e-06
4.6875e-06
4.6875e-06
4.6875e-06
4.6875e-06
4.6875e-06
4.6631e-06
4.6875e-06
4.6631e-06
4.6875e-06
4.6631e-06
4.6875e-06
4.6875e-06
4.6875e-06
4.6875e-06
4.6875e-06
4.6875e-06
4.6875e-06
4.6875e-06
4.6875e-06
4.6875e-06
4.6875e-06
4.6875e-06
4.6875e-06
4.6875e-06
4.6875e-06
4.6631e-06
4.6875e-06
4.6631e-06
4.6875e-06
4.6875e-06
4.6875e-06
4.6875e-06
4.6875e-06
4.6875e-06
4.6875e-06
4.6875e-06
4.6875e-06
4.6875e-06
4.6875e-06
4.6875e-06
4.6875e-06
4.6875e-06
4.6875e-06
4.6875e-06
4.6875e-06
4.6875e-06
4.6875e-06
4.6875e-06
4.6875e-06
4.6875e-06
4.6875e-06
4.6875e-06
4.6875e-06
4.6875e-06
4.6875e-06
4.6875e-06
4.7119e-06
4.6875e-06
4.6875e-06
4.6875e-06
4.6875e-06
4.6875e-06
4.7119e-06
4.6875e-06
4.6875e-06
4.6875e-06
4.6875e-06
4.6875e-06
4.6875e-06
4.6875e-06
4.6875e-06
4.6875e-06
4.7119e-06
4.6875e-06
4.6875e-06
4.6875e-06
4.6875e-06
4.6875e-06
4.6875e-06
4.6875e-06
4.6875e-06
4.6875e-06
4.6875e-06
4.6875e-06
4.6875e-06
4.6875e-06
4.6875e-06
4.6875e-06
4.6875e-06
4.6875e-06
4.6875e-06
4.6875e-06
4.6875e-06
4.6875e-06
4.6875e-06
4.6875e-06
4.6875e-06
4.6875e-06
4.6875e-06
4.6875e-06
4.6875e-06
4.6875e-06
4.6875e-06
4.6875e-06
4.6875e-06
4.6875e-06
4.6875e-06
4.6875e-06
4.6875e-06
4.6875e-06
4.6875e-06
4.6875e-06
4.6875e-06
4.6875e-06
4.6875e-06
4.6875e-06
4.6875e-06
4.6875e-06
4.6875e-06
4.6875e-06
4.6875e-06
4.6631e-06
4.6875e-06
4.6875e-06
4.6875e-06
4.6875e-06
4.6631e-06
4.6875e-06
4.6875e-06
4.6631e-06
4.6875e-06
4.6631e-06
4.6875e-06
4.6631e-06
4.6631e-06
4.6631e-06
4.6875e-06
4.6875e-06
4.6875e-06
4.6631e-06
4.6875e-06
4.6875e-06
4.6875e-06
4.6631e-06
4.6631e-06
4.6631e-06
4.6631e-06
4.6875e-06
4.6631e-06
4.6631e-06
4.6875e-06
4.6631e-06
4.6875e-06
4.6875e-06
4.6875e-06
4.6875e-06
4.6875e-06
4.6875e-06
4.6631e-06
4.6631e-06
4.6875e-06
4.6875e-06
4.6631e-06
4.6631e-06
4.6875e-06
4.6631e-06
4.6875e-06
4.6875e-06
4.6875e-06
4.6631e-06
4.6875e-06
4.6875e-06
4.6631e-06
4.6875e-06
4.6875e-06
4.6631e-06
4.6875e-06
4.6631e-06
4.6875e-06
4.6631e-06
4.6875e-06
4.6875e-06
4.6875e-06
4.6631e-06
4.6631e-06
4.6631e-06
4.6631e-06
4.6631e-06
4.6875e-06
4.6631e-06
4.6875e-06
4.6875e-06
4.6631e-06
4.6631e-06
4.6631e-06
4.6631e-06
4.6875e-06
4.6631e-06
4.6875e-06
4.6631e-06
4.6875e-06
4.6631e-06
4.6875e-06
4.6631e-06
4.6875e-06
4.6631e-06
4.6875e-06
4.6631e-06
4.6631e-06
4.6631e-06
4.6875e-06
4.6631e-06
4.6875e-06
4.6631e-06
4.6631e-06
4.6631e-06
4.6875e-06
4.6631e-06
4.6875e-06
4.6631e-06
4.6875e-06
4.6631e-06
4.6631e-06
4.6631e-06
4.6631e-06
4.6631e-06
4.6631e-06
4.6631e-06
4.6875e-06
4.6631e-06
4.6631e-06
4.6631e-06
4.6875e-06
4.6631e-06
4.6631e-06
4.6631e-06
4.6631e-06
4.6631e-06
4.6631e-06
4.6631e-06
4.6631e-06
4.6631e-06
4.6631e-06
4.6631e-06
4.6631e-06
4.6631e-06
4.6631e-06
4.6631e-06
4.6631e-06
4.6631e-06
4.6631e-06
4.6631e-06
4.6631e-06
4.6631e-06
4.6631e-06
4.6631e-06
4.6631e-06
4.6631e-06
4.6631e-06
4.6631e-06
4.6631e-06
4.6631e-06
4.6631e-06
4.6631e-06
4.6631e-06
4.6631e-06
4.6631e-06
4.6631e-06
4.6631e-06
4.6631e-06
4.6631e-06
4.6631e-06
4.6631e-06
4.6631e-06
4.6631e-06
4.6631e-06
4.6631e-06
4.6631e-06
4.6631e-06
4.6631e-06
4.6631e-06
4.6631e-06
4.6631e-06
4.6631e-06
4.6631e-06
4.6631e-06
4.6631e-06
4.6631e-06
4.6631e-06
4.6631e-06
4.6631e-06
4.6631e-06
4.6631e-06
4.6631e-06
4.6631e-06
4.6631e-06
4.6631e-06
4.6631e-06
4.6631e-06
4.6631e-06
4.6631e-06
4.6631e-06
4.6631e-06
4.6631e-06
4.6631e-06
4.6631e-06
4.6631e-06
4.6631e-06
4.6631e-06
4.6387e-06
4.6631e-06
4.6631e-06
4.6631e-06
4.6631e-06
4.6631e-06
4.6631e-06
4.6631e-06
4.6631e-06
4.6631e-06
4.6631e-06
4.6631e-06
4.6631e-06
4.6631e-06
4.6387e-06
4.6631e-06
4.6631e-06
4.6631e-06
4.6631e-06
4.6631e-06
4.6387e-06
4.6631e-06
4.6631e-06
4.6631e-06
4.6387e-06
4.6631e-06
4.6387e-06
4.6631e-06
4.6387e-06
4.6387e-06
4.6387e-06
4.6631e-06
4.6387e-06
4.6631e-06
4.6631e-06
4.6387e-06
4.6387e-06
4.6631e-06
4.6387e-06
4.6387e-06
4.6631e-06
4.6631e-06
4.6387e-06
4.6631e-06
4.6631e-06
4.6631e-06
4.6387e-06
4.6631e-06
4.6387e-06
4.6631e-06
4.6387e-06
4.6631e-06
4.6387e-06
4.6387e-06
4.6387e-06
4.6631e-06
4.6387e-06
4.6631e-06
4.6387e-06
4.6387e-06
4.6387e-06
4.6631e-06
4.6387e-06
4.6387e-06
4.6387e-06
4.6387e-06
4.6387e-06
4.6631e-06
4.6631e-06
4.6631e-06
4.6387e-06
4.6631e-06
4.6387e-06
4.6387e-06
4.6387e-06
4.6631e-06
4.6387e-06
4.6631e-06
4.6387e-06
4.6387e-06
4.6387e-06
4.6631e-06
4.6387e-06
4.6631e-06
4.6387e-06
4.6631e-06
4.6387e-06
4.6387e-06
4.6387e-06
4.6387e-06
4.6387e-06
4.6387e-06
4.6387e-06
4.6387e-06
4.6387e-06
4.6631e-06
4.6387e-06
4.6387e-06
4.6387e-06
4.6387e-06
4.6387e-06
4.6387e-06
4.6387e-06
4.6631e-06
4.6387e-06
4.6387e-06
4.6387e-06
4.6631e-06
4.6387e-06
4.6631e-06
4.6387e-06
4.6631e-06
4.6387e-06
4.6631e-06
4.6387e-06
4.6387e-06
4.6387e-06
4.6631e-06
4.6387e-06
4.6387e-06
4.6387e-06
4.6631e-06
4.6387e-06
4.6631e-06
4.6387e-06
4.6631e-06
4.6387e-06
4.6387e-06
4.6387e-06
4.6387e-06
4.6387e-06
4.6387e-06
4.6387e-06
4.6631e-06
4.6387e-06
4.6387e-06
4.6387e-06
4.6631e-06
4.6387e-06
4.6387e-06
4.6387e-06
4.6631e-06
4.6387e-06
4.6387e-06
4.6387e-06
4.6631e-06
4.6387e-06
4.6387e-06
4.6387e-06
4.6387e-06
4.6387e-06
4.6387e-06
4.6387e-06
4.6387e-06
4.6387e-06
4.6387e-06
4.6387e-06
4.6387e-06
4.6387e-06
4.6387e-06
4.6387e-06
4.6387e-06
4.6387e-06
4.6387e-06
4.6387e-06
4.6387e-06
4.6387e-06
4.6387e-06
4.6387e-06
4.6387e-06
4.6387e-06
4.6387e-06
4.6387e-06
4.6387e-06
4.6387e-06
4.6387e-06
4.6387e-06
4.6387e-06
4.6387e-06
4.6387e-06
4.6387e-06
4.6387e-06
4.6387e-06
4.6387e-06
4.6387e-06
4.6387e-06
4.6387e-06
4.6387e-06
4.6387e-06
4.6387e-06
4.6387e-06
4.6387e-06
4.6387e-06
4.6387e-06
4.6387e-06
4.6387e-06
4.6143e-06
4.6387e-06
4.6143e-06
4.6387e-06
4.6387e-06
4.6387e-06
4.6387e-06
4.6387e-06
4.6387e-06
4.6387e-06
4.6387e-06
4.6387e-06
4.6387e-06
4.6387e-06
4.6143e-06
4.6387e-06
4.6143e-06
4.6387e-06
4.6387e-06
4.6387e-06
4.6387e-06
4.6387e-06
4.6143e-06
4.6387e-06
4.6143e-06
4.6387e-06
4.6143e-06
4.6143e-06
4.6143e-06
4.6387e-06
4.6143e-06
4.6143e-06
4.6143e-06
4.6387e-06
4.6143e-06
4.6143e-06
4.6143e-06
4.6387e-06
4.6143e-06
4.6387e-06
4.6143e-06
4.6387e-06
4.6143e-06
4.6143e-06
4.6143e-06
4.6387e-06
4.6143e-06
4.6143e-06
4.6143e-06
4.6387e-06
4.6143e-06
4.6143e-06
4.6143e-06
4.6143e-06
4.6143e-06
4.6143e-06
4.6143e-06
4.6387e-06
4.6143e-06
4.6143e-06
4.6143e-06
4.6387e-06
4.6143e-06
4.6143e-06
4.6143e-06
4.6143e-06
4.6143e-06
4.6143e-06
4.6143e-06
4.6143e-06
4.6143e-06
4.6143e-06
4.6143e-06
4.6143e-06
4.6143e-06
4.6143e-06
4.6143e-06
4.6143e-06
4.6143e-06
4.6143e-06
4.6143e-06
4.6143e-06
4.6143e-06
4.6143e-06
4.6143e-06
4.6143e-06
4.6143e-06
4.6143e-06
4.6143e-06
4.6143e-06
4.6143e-06
4.6143e-06
4.6143e-06
4.6143e-06
4.5898e-06
4.6143e-06
4.6143e-06
4.6143e-06
4.6143e-06
4.6143e-06
4.6143e-06
4.6143e-06
4.6143e-06
4.6143e-06
4.6143e-06
4.6143e-06
4.5898e-06
4.6143e-06
4.6143e-06
4.6143e-06
4.6143e-06
4.6143e-06
4.5898e-06
4.6143e-06
4.5898e-06
4.6143e-06
4.5898e-06
4.6143e-06
4.6143e-06
4.6143e-06
4.5898e-06
4.6143e-06
4.6143e-06
4.6143e-06
4.6143e-06
4.6143e-06
4.5898e-06
4.6143e-06
4.5898e-06
4.5898e-06
4.5898e-06
4.5898e-06
4.5898e-06
4.6143e-06
4.5898e-06
4.6143e-06
4.5898e-06
4.6143e-06
4.5898e-06
4.6143e-06
4.5898e-06
4.6143e-06
4.5898e-06
4.6143e-06
4.5898e-06
4.5898e-06
4.5898e-06
4.6143e-06
4.5898e-06
4.5898e-06
4.5898e-06
4.5898e-06
4.5898e-06
4.5898e-06
4.5654e-06
4.5898e-06
4.5898e-06
4.5898e-06
4.5898e-06
4.5898e-06
4.5898e-06
4.5898e-06
4.5898e-06
4.5898e-06
4.5898e-06
4.5898e-06
4.5654e-06
4.5898e-06
4.5898e-06
4.5898e-06
4.5898e-06
4.5898e-06
4.5898e-06
4.5898e-06
4.5898e-06
4.5898e-06
4.5898e-06
4.5898e-06
4.5898e-06
4.5898e-06
4.5898e-06
4.5898e-06
4.5654e-06
4.5898e-06
4.5898e-06
4.5898e-06
4.5898e-06
4.5898e-06
4.5898e-06
4.5898e-06
4.5898e-06
4.5898e-06
4.5654e-06
4.5898e-06
4.5654e-06
4.5898e-06
4.5898e-06
4.5654e-06
4.5654e-06
4.5898e-06
4.5654e-06
4.5898e-06
4.5654e-06
4.5898e-06
4.5654e-06
4.5654e-06
4.5654e-06
4.5898e-06
4.5654e-06
4.5898e-06
4.5654e-06
4.5898e-06
4.5654e-06
4.5654e-06
4.5654e-06
4.5898e-06
4.5654e-06
4.5654e-06
4.5654e-06
4.5898e-06
4.5654e-06
4.5654e-06
4.5654e-06
4.5654e-06
4.5654e-06
4.5654e-06
4.5654e-06
4.5654e-06
4.5654e-06
4.5654e-06
4.5654e-06
4.5654e-06
4.5654e-06
4.5654e-06
4.541e-06
4.5654e-06
4.5654e-06
4.5654e-06
4.5654e-06
4.5654e-06
4.5654e-06
4.5654e-06
4.5654e-06
4.5654e-06
4.5654e-06
4.5654e-06
4.541e-06
4.5654e-06
4.541e-06
4.5654e-06
4.5654e-06
4.5654e-06
4.5654e-06
4.5654e-06
4.541e-06
4.5654e-06
4.5654e-06
4.541e-06
4.5654e-06
4.5654e-06
4.5654e-06
4.5654e-06
4.5654e-06
4.5654e-06
4.541e-06
4.5654e-06
4.541e-06
4.5654e-06
4.5654e-06
4.541e-06
4.541e-06
4.5654e-06
4.5654e-06
4.5654e-06
4.541e-06
4.5654e-06
4.5654e-06
4.541e-06
4.541e-06
4.541e-06
4.541e-06
4.541e-06
4.541e-06
4.5654e-06
4.541e-06
4.5654e-06
4.541e-06
4.541e-06
4.541e-06
4.541e-06
4.541e-06
4.5654e-06
4.541e-06
4.541e-06
4.541e-06
4.541e-06
4.541e-06
4.541e-06
4.5166e-06
4.541e-06
4.541e-06
4.541e-06
4.541e-06
4.541e-06
4.5166e-06
4.541e-06
4.541e-06
4.541e-06
4.541e-06
4.541e-06
4.541e-06
4.541e-06
4.541e-06
4.541e-06
4.541e-06
4.541e-06
4.541e-06
4.541e-06
4.541e-06
4.541e-06
4.541e-06
4.541e-06
4.541e-06
4.541e-06
4.541e-06
4.541e-06
4.5166e-06
4.541e-06
4.541e-06
4.541e-06
4.541e-06
4.541e-06
4.541e-06
4.541e-06
4.5166e-06
4.541e-06
4.541e-06
4.541e-06
4.541e-06
4.5166e-06
4.5166e-06
4.541e-06
4.5166e-06
4.5166e-06
4.5166e-06
4.5166e-06
4.5166e-06
4.541e-06
4.5166e-06
4.541e-06
4.5166e-06
4.5166e-06
4.5166e-06
4.5166e-06
4.5166e-06
4.541e-06
4.5166e-06
4.5166e-06
4.5166e-06
4.541e-06
4.5166e-06
4.5166e-06
4.5166e-06
4.5166e-06
4.5166e-06
4.5166e-06
4.5166e-06
4.541e-06
4.5166e-06
4.5166e-06
4.5166e-06
4.5166e-06
4.5166e-06
4.5166e-06
4.5166e-06
4.5166e-06
4.5166e-06
4.5166e-06
4.5166e-06
4.5166e-06
4.5166e-06
4.5166e-06
4.5166e-06
4.5166e-06
4.5166e-06
4.5166e-06
4.5166e-06
4.5166e-06
4.5166e-06
4.5166e-06
4.5166e-06
4.5166e-06
4.5166e-06
4.5166e-06
4.5166e-06
4.5166e-06
4.5166e-06
4.5166e-06
4.5166e-06
4.5166e-06
4.5166e-06
4.5166e-06
4.5166e-06
4.5166e-06
4.5166e-06
4.5166e-06
4.5166e-06
4.5166e-06
4.4922e-06
4.5166e-06
4.5166e-06
4.5166e-06
4.5166e-06
4.5166e-06
4.5166e-06
4.5166e-06
4.4922e-06
4.5166e-06
4.4922e-06
4.5166e-06
4.5166e-06
4.4922e-06
4.4922e-06
4.5166e-06
4.4922e-06
4.5166e-06
4.4922e-06
4.5166e-06
4.5166e-06
4.5166e-06
4.4922e-06
4.5166e-06
4.4922e-06
4.5166e-06
4.4922e-06
4.5166e-06
4.5166e-06
4.5166e-06
4.4922e-06
4.5166e-06
4.4922e-06
4.5166e-06
4.4922e-06
4.4922e-06
4.4922e-06
4.5166e-06
4.4922e-06
4.4922e-06
4.4922e-06
4.5166e-06
4.4922e-06
4.4922e-06
4.4922e-06
4.4922e-06
4.4922e-06
4.4922e-06
4.4922e-06
4.4922e-06
4.4922e-06
4.4922e-06
4.4922e-06
4.4922e-06
4.4922e-06
4.4922e-06
4.4922e-06
4.4922e-06
4.4922e-06
4.4922e-06
4.4922e-06
4.4922e-06
4.4922e-06
4.4922e-06
4.4922e-06
4.4922e-06
4.4922e-06
4.4922e-06
4.4922e-06
4.4922e-06
4.4922e-06
4.4922e-06
4.4922e-06
4.4922e-06
4.4678e-06
4.4922e-06
4.4678e-06
4.4922e-06
4.4922e-06
4.4922e-06
4.4922e-06
4.4922e-06
4.4922e-06
4.4922e-06
4.4678e-06
4.4922e-06
4.4922e-06
4.4922e-06
4.4922e-06
4.4922e-06
4.4922e-06
4.4922e-06
4.4678e-06
4.4922e-06
4.4678e-06
4.4678e-06
4.4678e-06
4.4922e-06
4.4678e-06
4.4678e-06
4.4678e-06
4.4678e-06
4.4678e-06
4.4678e-06
4.4678e-06
4.4678e-06
4.4678e-06
4.4922e-06
4.4678e-06
4.4678e-06
4.4678e-06
4.4678e-06
4.4678e-06
4.4678e-06
4.4678e-06
4.4678e-06
4.4678e-06
4.4678e-06
4.4678e-06
4.4678e-06
4.4678e-06
4.4678e-06
4.4678e-06
4.4678e-06
4.4434e-06
4.4678e-06
4.4678e-06
4.4678e-06
4.4678e-06
4.4678e-06
4.4434e-06
4.4678e-06
4.4434e-06
4.4678e-06
4.4434e-06
4.4678e-06
4.4678e-06
4.4678e-06
4.4434e-06
4.4678e-06
4.4678e-06
4.4678e-06
4.4434e-06
4.4678e-06
4.4434e-06
4.4678e-06
4.4434e-06
4.4434e-06
4.4434e-06
4.4434e-06
4.4434e-06
4.4678e-06
4.4434e-06
4.4434e-06
4.4434e-06
4.4678e-06
4.4434e-06
4.4434e-06
4.4434e-06
4.4678e-06
4.4434e-06
4.4434e-06
4.4434e-06
4.4678e-06
4.4434e-06
4.4434e-06
4.4189e-06
4.4434e-06
4.4434e-06
4.4434e-06
4.4434e-06
4.4434e-06
4.4434e-06
4.4434e-06
4.4434e-06
4.4434e-06
4.4434e-06
4.4434e-06
4.4189e-06
4.4434e-06
4.4434e-06
4.4434e-06
4.4189e-06
4.4434e-06
4.4434e-06
4.4434e-06
4.4189e-06
4.4434e-06
4.4189e-06
4.4189e-06
4.4189e-06
4.4434e-06
4.4189e-06
4.4434e-06
4.4189e-06
4.4189e-06
4.4189e-06
4.4434e-06
4.4189e-06
4.4434e-06
4.4189e-06
4.4189e-06
4.4189e-06
4.4189e-06
4.3945e-06
4.4189e-06
4.4189e-06
4.4434e-06
4.3945e-06
4.4189e-06
4.4189e-06
4.4434e-06
4.3945e-06
4.4189e-06
4.4189e-06
4.4189e-06
4.3945e-06
4.4189e-06
4.4189e-06
4.4189e-06
4.3945e-06
4.4189e-06
4.3945e-06
4.4189e-06
4.4189e-06
4.4189e-06
4.3945e-06
4.4189e-06
4.3945e-06
4.4189e-06
4.3945e-06
4.4189e-06
4.3945e-06
4.4189e-06
4.3945e-06
4.4189e-06
4.3945e-06
4.4189e-06
4.3945e-06
4.3945e-06
4.3945e-06
4.3945e-06
4.3945e-06
4.3945e-06
4.3945e-06
4.3945e-06
4.3701e-06
4.3945e-06
4.3945e-06
4.3945e-06
4.3945e-06
4.3945e-06
4.3945e-06
4.3945e-06
4.3945e-06
4.3945e-06
4.3701e-06
4.3945e-06
4.3701e-06
4.3945e-06
4.3945e-06
4.3945e-06
4.3945e-06
4.3945e-06
4.3945e-06
4.3945e-06
4.3701e-06
4.3945e-06
4.3945e-06
4.3945e-06
4.3945e-06
4.3945e-06
4.3701e-06
4.3945e-06
4.3701e-06
4.3945e-06
4.3701e-06
4.3945e-06
4.3701e-06
4.3945e-06
4.3701e-06
4.3945e-06
4.3701e-06
4.3945e-06
4.3701e-06
4.3701e-06
4.3701e-06
4.3945e-06
4.3701e-06
4.3945e-06
4.3701e-06
4.3945e-06
4.3701e-06
4.3701e-06
4.3701e-06
4.3701e-06
4.3701e-06
4.3701e-06
4.3701e-06
4.3945e-06
4.3701e-06
4.3701e-06
4.3701e-06
4.3701e-06
4.3701e-06
4.3701e-06
4.3701e-06
4.3701e-06
4.3701e-06
4.3701e-06
4.3701e-06
4.3701e-06
4.3701e-06
4.3701e-06
4.3701e-06
4.3701e-06
4.3701e-06
4.3701e-06
4.3701e-06
4.3701e-06
4.3457e-06
4.3701e-06
4.3701e-06
4.3701e-06
4.3701e-06
4.3701e-06
4.3701e-06
4.3701e-06
4.3701e-06
4.3701e-06
4.3701e-06
4.3701e-06
4.3701e-06
4.3701e-06
4.3701e-06
4.3701e-06
4.3457e-06
4.3701e-06
4.3701e-06
4.3701e-06
4.3701e-06
4.3701e-06
4.3457e-06
4.3701e-06
4.3457e-06
4.3701e-06
4.3457e-06
4.3701e-06
4.3701e-06
4.3701e-06
4.3457e-06
4.3701e-06
4.3457e-06
4.3701e-06
4.3701e-06
4.3457e-06
4.3457e-06
4.3701e-06
4.3457e-06
4.3701e-06
4.3457e-06
4.3701e-06
4.3457e-06
4.3701e-06
4.3457e-06
4.3701e-06
4.3457e-06
4.3701e-06
4.3457e-06
4.3701e-06
4.3457e-06
4.3701e-06
4.3457e-06
4.3457e-06
4.3213e-06
4.3701e-06
4.3457e-06
4.3701e-06
4.3457e-06
4.3701e-06
4.3457e-06
4.3457e-06
4.3457e-06
4.3457e-06
4.3457e-06
4.3457e-06
4.3213e-06
4.3701e-06
4.3457e-06
4.3457e-06
4.3213e-06
4.3457e-06
4.3457e-06
4.3457e-06
4.3457e-06
4.3457e-06
4.3457e-06
4.3457e-06
4.3457e-06
4.3457e-06
4.3457e-06
4.3457e-06
4.3457e-06
4.3457e-06
4.3213e-06
4.3457e-06
4.3457e-06
4.3457e-06
4.3457e-06
4.3457e-06
4.3457e-06
4.3457e-06
4.3457e-06
4.3457e-06
4.3213e-06
4.3457e-06
4.3213e-06
4.3457e-06
4.3213e-06
4.3457e-06
4.3213e-06
4.3457e-06
4.3457e-06
4.3457e-06
4.3213e-06
4.3457e-06
4.3457e-06
4.3457e-06
4.3457e-06
4.3457e-06
4.3213e-06
4.3457e-06
4.3213e-06
4.3457e-06
4.3213e-06
4.3457e-06
4.3457e-06
4.3457e-06
4.3457e-06
4.3457e-06
4.3213e-06
4.3457e-06
4.3213e-06
4.3457e-06
4.3213e-06
4.3457e-06
4.3213e-06
4.3457e-06
4.3213e-06
4.3213e-06
4.3213e-06
4.3213e-06
4.3213e-06
4.3457e-06
4.3213e-06
4.3457e-06
4.3213e-06
4.3213e-06
4.3213e-06
4.3457e-06
4.3213e-06
4.3457e-06
4.3213e-06
4.3213e-06
4.3213e-06
4.3213e-06
4.3213e-06
4.3213e-06
4.3213e-06
4.3213e-06
4.3213e-06
4.3213e-06
4.3213e-06
4.3213e-06
4.3213e-06
4.3213e-06
4.3213e-06
4.3213e-06
4.3213e-06
4.3213e-06
4.3213e-06
4.3213e-06
4.3213e-06
4.3213e-06
4.3213e-06
4.3213e-06
4.3213e-06
4.3213e-06
4.3213e-06
4.3213e-06
4.3213e-06
4.3213e-06
4.3213e-06
4.3213e-06
4.2969e-06
4.3213e-06
4.3213e-06
4.3213e-06
4.2969e-06
4.3213e-06
4.2969e-06
4.3213e-06
4.3213e-06
4.3213e-06
4.3213e-06
4.3213e-06
4.3213e-06
4.3213e-06
4.2969e-06
4.3213e-06
4.3213e-06
4.3213e-06
4.2969e-06
4.3213e-06
4.2969e-06
4.3213e-06
4.2969e-06
4.3213e-06
4.2969e-06
4.3213e-06
4.2969e-06
4.2969e-06
4.2969e-06
4.3213e-06
4.2969e-06
4.3213e-06
4.2969e-06
4.3213e-06
4.2969e-06
4.3213e-06
4.2969e-06
4.3213e-06
4.2969e-06
4.2969e-06
4.2969e-06
4.3213e-06
4.2969e-06
4.2969e-06
4.2969e-06
4.3213e-06
4.2969e-06
4.2969e-06
4.2969e-06
4.2969e-06
4.2969e-06
4.2969e-06
4.2969e-06
4.2969e-06
4.2969e-06
4.2969e-06
4.2969e-06
4.3213e-06
4.2969e-06
4.2969e-06
4.2969e-06
4.2969e-06
4.2725e-06
4.2969e-06
4.2969e-06
4.2969e-06
4.2969e-06
4.2969e-06
4.2969e-06
4.2969e-06
4.2969e-06
4.2969e-06
4.2969e-06
4.3213e-06
4.2969e-06
4.2969e-06
4.2969e-06
4.3213e-06
4.2969e-06
4.2969e-06
4.2969e-06
4.3213e-06
4.2969e-06
4.2969e-06
4.2969e-06
4.2969e-06
4.2969e-06
4.2969e-06
4.2969e-06
4.2969e-06
4.2725e-06
4.2969e-06
4.2969e-06
4.2969e-06
4.2969e-06
4.2969e-06
4.2969e-06
4.2969e-06
4.2969e-06
4.2969e-06
4.2969e-06
4.2969e-06
4.2969e-06
4.2969e-06
4.2969e-06
4.2969e-06
4.2969e-06
4.2969e-06
4.2969e-06
4.2969e-06
4.2969e-06
4.2969e-06
4.2969e-06
4.2969e-06
4.2969e-06
4.2969e-06
4.2725e-06
4.2969e-06
4.2969e-06
4.2969e-06
4.2725e-06
4.2969e-06
4.2969e-06
4.2969e-06
4.2725e-06
4.2969e-06
4.2725e-06
4.2725e-06
4.2725e-06
4.2969e-06
4.2725e-06
4.2969e-06
4.2725e-06
4.2969e-06
4.2725e-06
4.2969e-06
4.2725e-06
4.2969e-06
4.2725e-06
4.2969e-06
4.2725e-06
4.2969e-06
4.2725e-06
4.2969e-06
4.2725e-06
4.2725e-06
4.2725e-06
4.2725e-06
4.2725e-06
4.2969e-06
4.2725e-06
4.2725e-06
4.2725e-06
4.2725e-06
4.2725e-06
4.2969e-06
4.2725e-06
4.2969e-06
4.2725e-06
4.2969e-06
4.2725e-06
4.2969e-06
4.2725e-06
4.2725e-06
4.2725e-06
4.2969e-06
4.2725e-06
4.2969e-06
4.2725e-06
4.2725e-06
4.2725e-06
4.2725e-06
4.2725e-06
4.2969e-06
4.2725e-06
4.2969e-06
4.2725e-06
4.2969e-06
4.2725e-06
4.2969e-06
4.2725e-06
4.2969e-06
4.2725e-06
4.2725e-06
4.2725e-06
4.2725e-06
4.2725e-06
4.2725e-06
4.248e-06
4.2725e-06
4.2725e-06
4.2725e-06
4.2725e-06
4.2725e-06
4.2725e-06
4.2969e-06
4.2725e-06
4.2969e-06
4.2725e-06
4.2969e-06
4.2725e-06
4.2725e-06
4.2725e-06
4.2969e-06
4.2725e-06
4.2725e-06
4.2725e-06
4.2969e-06
4.2725e-06
4.2725e-06
4.2725e-06
4.2725e-06
4.2725e-06
4.2969e-06
4.2725e-06
4.2725e-06
4.2725e-06
4.2969e-06
4.2969e-06
4.2969e-06
4.2969e-06
4.2969e-06
4.2725e-06
4.2969e-06
4.2969e-06
4.2969e-06
4.2725e-06
4.2969e-06
4.2969e-06
4.2969e-06
4.2969e-06
4.3213e-06
4.2969e-06
4.3213e-06
4.2969e-06
4.2969e-06
4.2969e-06
4.3213e-06
4.2969e-06
4.3213e-06
4.2969e-06
4.3213e-06
4.3213e-06
4.3213e-06
4.3213e-06
4.3213e-06
4.3213e-06
4.3213e-06
4.3213e-06
4.3213e-06
4.3213e-06
4.3213e-06
4.3213e-06
4.3457e-06
4.3213e-06
4.3457e-06
4.3213e-06
4.3457e-06
4.3457e-06
4.3457e-06
4.3213e-06
4.3701e-06
4.3457e-06
4.3457e-06
4.3457e-06
4.3701e-06
4.3457e-06
4.3701e-06
4.3457e-06
4.3701e-06
4.3457e-06
4.3701e-06
4.3701e-06
4.3701e-06
4.3701e-06
4.3701e-06
4.3701e-06
4.3945e-06
4.3701e-06
4.3701e-06
4.3701e-06
4.3945e-06
4.3701e-06
4.3945e-06
4.3701e-06
4.3945e-06
4.3945e-06
4.3945e-06
4.3945e-06
4.4189e-06
4.3945e-06
4.4189e-06
4.3945e-06
4.4189e-06
4.3945e-06
4.4189e-06
4.3945e-06
4.4189e-06
4.4189e-06
4.4434e-06
4.4189e-06
4.4434e-06
4.4434e-06
4.4189e-06
4.4189e-06
4.4434e-06
4.4189e-06
4.4434e-06
4.4189e-06
4.4434e-06
4.4434e-06
4.4678e-06
4.4434e-06
4.4678e-06
4.4434e-06
4.4434e-06
4.4434e-06
4.4434e-06
4.4678e-06
4.4678e-06
4.4678e-06
4.4678e-06
4.4678e-06
4.4678e-06
4.4678e-06
4.4678e-06
4.4678e-06
4.4922e-06
4.4678e-06
4.4922e-06
4.4678e-06
4.4922e-06
4.4678e-06
4.4922e-06
4.4678e-06
4.4922e-06
4.4678e-06
4.4922e-06
4.4922e-06
4.4922e-06
4.4922e-06
4.4922e-06
4.4678e-06
4.4922e-06
4.4922e-06
4.4922e-06
4.4922e-06
4.4922e-06
4.4922e-06
4.4922e-06
4.4922e-06
4.4922e-06
4.4922e-06
4.4922e-06
4.4922e-06
4.5166e-06
4.4922e-06
4.5166e-06
4.4922e-06
4.5166e-06
4.4922e-06
4.5166e-06
4.4922e-06
4.5166e-06
4.4922e-06
4.5166e-06
4.4922e-06
4.4922e-06
4.4922e-06
4.5166e-06
4.4922e-06
4.5166e-06
4.4922e-06
4.5166e-06
4.5166e-06
4.5166e-06
4.4922e-06
4.5166e-06
4.4922e-06
4.5166e-06
4.4922e-06
4.5166e-06
4.4922e-06
4.5166e-06
4.4922e-06
4.5166e-06
4.5166e-06
4.5166e-06
4.4922e-06
4.5166e-06
4.5166e-06
4.5166e-06
4.4922e-06
4.5166e-06
4.4922e-06
4.5166e-06
4.4922e-06
4.5166e-06
4.5166e-06
4.5166e-06
4.5166e-06
4.5166e-06
4.4922e-06
4.5166e-06
4.5166e-06
4.5166e-06
4.5166e-06
4.5166e-06
4.4922e-06
4.5166e-06
4.4922e-06
4.5166e-06
4.5166e-06
4.5166e-06
4.4922e-06
4.5166e-06
4.5166e-06
4.5166e-06
4.5166e-06
4.5166e-06
4.4922e-06
4.5166e-06
4.5166e-06
4.5166e-06
4.5166e-06
4.5166e-06
4.5166e-06
4.5166e-06
4.4922e-06
4.5166e-06
4.5166e-06
4.5166e-06
4.4922e-06
4.5166e-06
4.4922e-06
4.5166e-06
4.4922e-06
4.5166e-06
4.4922e-06
4.5166e-06
4.5166e-06
4.5166e-06
4.5166e-06
4.5166e-06
4.5166e-06
4.5166e-06
4.4922e-06
4.5166e-06
4.4922e-06
4.5166e-06
4.5166e-06
4.5166e-06
4.4922e-06
4.5166e-06
4.5166e-06
4.5166e-06
4.4922e-06
4.5166e-06
4.5166e-06
4.5166e-06
4.5166e-06
4.541e-06
4.5166e-06
4.5166e-06
4.5166e-06
4.541e-06
4.5166e-06
4.541e-06
4.5166e-06
4.541e-06
4.5166e-06
4.5166e-06
4.5166e-06
4.541e-06
4.5166e-06
4.541e-06
4.5166e-06
4.541e-06
4.5166e-06
4.541e-06
4.5166e-06
4.5654e-06
4.541e-06
4.541e-06
4.541e-06
4.541e-06
4.541e-06
4.5654e-06
4.541e-06
4.5654e-06
4.541e-06
4.5654e-06
4.541e-06
4.5654e-06
4.541e-06
4.5654e-06
4.541e-06
4.5654e-06
4.5654e-06
4.5654e-06
4.541e-06
4.5654e-06
4.5654e-06
4.5654e-06
4.5654e-06
4.5654e-06
4.5654e-06
4.5654e-06
4.5654e-06
4.5654e-06
4.5654e-06
4.5654e-06
4.5654e-06
4.5898e-06
4.5654e-06
4.5654e-06
4.5654e-06
4.5898e-06
4.5654e-06
4.5654e-06
4.5654e-06
4.5898e-06
4.5654e-06
4.5898e-06
4.5654e-06
4.5898e-06
4.5654e-06
4.5898e-06
4.5898e-06
4.5898e-06
4.5654e-06
4.5898e-06
4.5654e-06
4.5898e-06
4.5898e-06
4.5898e-06
4.5654e-06
4.5898e-06
4.5898e-06
4.5898e-06
4.5898e-06
4.6143e-06
4.5898e-06
4.6143e-06
4.5898e-06
4.6143e-06
4.5898e-06
4.5898e-06
4.5898e-06
4.6143e-06
4.6143e-06
4.6143e-06
4.6143e-06
4.6143e-06
4.6143e-06
4.6143e-06
4.6143e-06
4.6387e-06
4.6143e-06
4.6387e-06
4.6143e-06
4.6387e-06
4.6387e-06
4.6387e-06
4.6143e-06
4.6387e-06
4.6143e-06
4.6387e-06
4.6387e-06
4.6387e-06
4.6387e-06
4.6387e-06
4.6143e-06
4.6631e-06
4.6387e-06
4.6631e-06
4.6387e-06
4.6631e-06
4.6387e-06
4.6631e-06
4.6387e-06
4.6631e-06
4.6387e-06
4.6631e-06
4.6387e-06
4.6631e-06
4.6631e-06
4.6631e-06
4.6631e-06
4.6631e-06
4.6631e-06
4.6631e-06
4.6631e-06
4.6875e-06
4.6631e-06
4.6875e-06
4.6631e-06
4.6875e-06
4.6631e-06
4.6875e-06
4.6875e-06
4.6875e-06
4.6631e-06
4.6875e-06
4.6875e-06
4.6875e-06
4.6875e-06
4.6875e-06
4.6875e-06
4.6875e-06
4.6875e-06
4.6875e-06
4.6875e-06
4.7119e-06
4.6875e-06
4.7119e-06
4.6875e-06
4.7119e-06
4.6875e-06
4.6875e-06
4.7119e-06
4.7119e-06
4.7119e-06
4.7119e-06
4.7119e-06
4.7119e-06
4.7119e-06
4.7119e-06
4.7119e-06
4.7363e-06
4.7119e-06
4.7363e-06
4.7119e-06
4.7363e-06
4.7363e-06
4.7363e-06
4.7119e-06
4.7363e-06
4.7363e-06
4.7607e-06
4.7363e-06
4.7607e-06
4.7363e-06
4.7607e-06
4.7607e-06
4.7607e-06
4.7607e-06
4.7607e-06
4.7607e-06
4.7607e-06
4.7607e-06
4.7607e-06
4.7607e-06
4.7852e-06
4.7607e-06
4.7852e-06
4.7607e-06
4.7852e-06
4.7852e-06
4.7852e-06
4.7852e-06
4.8096e-06
4.8096e-06
4.8096e-06
4.7852e-06
4.8096e-06
4.8096e-06
4.834e-06
4.8096e-06
4.834e-06
4.8096e-06
4.834e-06
4.8096e-06
4.8584e-06
4.834e-06
4.834e-06
4.834e-06
4.8584e-06
4.8584e-06
4.8584e-06
4.8584e-06
4.8584e-06
4.8584e-06
4.8584e-06
4.8584e-06
4.8584e-06
4.8584e-06
4.8828e-06
4.8828e-06
4.8828e-06
4.8828e-06
4.8828e-06
4.8828e-06
4.8828e-06
4.8828e-06
4.9072e-06
4.8828e-06
4.9072e-06
4.9072e-06
4.9072e-06
4.9072e-06
4.9316e-06
4.9072e-06
4.9316e-06
4.9316e-06
4.9316e-06
4.9316e-06
4.9316e-06
4.9072e-06
4.9561e-06
4.9561e-06
4.9561e-06
4.9561e-06
4.9561e-06
4.9561e-06
4.9561e-06
4.9561e-06
4.9805e-06
4.9561e-06
4.9805e-06
4.9561e-06
4.9805e-06
4.9805e-06
4.9805e-06
4.9805e-06
4.9805e-06
4.9805e-06
4.9805e-06
4.9805e-06
5.0049e-06
4.9805e-06
5.0049e-06
5.0049e-06
5.0049e-06
5.0049e-06
5.0293e-06
5.0293e-06
5.0293e-06
5.0293e-06
5.0293e-06
5.0293e-06
5.0537e-06
5.0293e-06
5.0537e-06
5.0537e-06
5.0537e-06
5.0537e-06
5.0537e-06
5.0537e-06
5.0537e-06
5.0537e-06
5.0537e-06
5.0537e-06
5.0537e-06
5.0537e-06
5.0537e-06
5.0537e-06
5.0781e-06
5.0537e-06
5.0781e-06
5.0537e-06
5.0781e-06
5.0781e-06
5.0781e-06
5.0781e-06
5.0781e-06
5.0781e-06
5.0781e-06
5.0537e-06
5.0781e-06
5.0781e-06
5.0781e-06
5.0781e-06
5.0781e-06
5.0781e-06
5.0781e-06
5.0781e-06
5.1025e-06
5.0781e-06
5.0781e-06
5.0781e-06
5.0781e-06
5.0781e-06
5.1025e-06
5.0781e-06
5.1025e-06
5.0781e-06
5.0781e-06
5.0781e-06
5.1025e-06
5.0781e-06
5.1025e-06
5.0781e-06
5.1025e-06
5.0781e-06
5.1025e-06
5.0781e-06
5.1025e-06
5.0781e-06
5.1025e-06
5.1025e-06
5.1025e-06
5.0781e-06
5.1025e-06
5.1025e-06
5.1025e-06
5.1025e-06
5.1025e-06
5.1025e-06
5.1025e-06
5.1025e-06
5.1025e-06
5.0781e-06
5.1025e-06
5.1025e-06
5.1025e-06
5.0781e-06
5.1025e-06
5.0781e-06
5.1025e-06
5.0781e-06
5.1025e-06
5.0781e-06
5.1025e-06
5.0781e-06
5.1025e-06
5.0781e-06
5.0781e-06
5.0781e-06
5.0781e-06
5.0781e-06
5.0781e-06
5.0781e-06
5.0781e-06
5.0781e-06
5.0781e-06
5.0781e-06
5.0781e-06
5.0781e-06
5.0781e-06
5.0537e-06
5.0781e-06
5.0537e-06
5.0781e-06
5.0537e-06
5.0537e-06
5.0537e-06
5.0537e-06
5.0537e-06
5.0537e-06
5.0537e-06
5.0537e-06
5.0537e-06
5.0537e-06
5.0537e-06
5.0537e-06
5.0537e-06
5.0537e-06
5.0537e-06
5.0537e-06
5.0537e-06
5.0537e-06
5.0537e-06
5.0537e-06
5.0537e-06
5.0537e-06
5.0537e-06
5.0537e-06
5.0537e-06
5.0537e-06
5.0537e-06
5.0537e-06
5.0537e-06
5.0537e-06
5.0537e-06
5.0537e-06
5.0537e-06
5.0781e-06
5.0781e-06
5.0781e-06
5.0781e-06
5.0781e-06
5.0537e-06
5.0781e-06
5.0781e-06
5.0781e-06
5.0781e-06
5.1025e-06
5.0781e-06
5.1025e-06
5.1025e-06
5.127e-06
5.127e-06
5.127e-06
5.127e-06
5.1514e-06
5.1514e-06
5.1514e-06
5.1514e-06
5.1514e-06
5.1758e-06
5.1758e-06
5.1758e-06
5.2002e-06
5.2002e-06
5.2002e-06
5.2002e-06
5.2246e-06
5.2246e-06
5.2246e-06
5.249e-06
5.249e-06
5.249e-06
5.2734e-06
5.249e-06
5.2734e-06
5.2734e-06
5.2979e-06
5.2979e-06
5.2979e-06
5.2979e-06
5.3223e-06
5.3223e-06
5.3467e-06
5.3223e-06
5.3467e-06
5.3467e-06
5.3711e-06
5.3711e-06
5.3711e-06
5.3711e-06
5.3955e-06
5.3955e-06
5.3955e-06
5.4199e-06
5.4199e-06
5.4199e-06
5.4443e-06
5.4443e-06
5.4443e-06
5.4687e-06
5.4687e-06
5.4687e-06
5.4932e-06
5.4932e-06
5.5176e-06
5.5176e-06
5.542e-06
5.542e-06
5.5664e-06
5.5664e-06
5.5664e-06
5.5664e-06
5.5908e-06
5.5908e-06
5.6152e-06
5.6152e-06
5.6152e-06
5.6152e-06
5.6396e-06
5.6152e-06
5.6396e-06
5.6152e-06
5.6396e-06
5.6396e-06
5.6396e-06
5.6396e-06
5.6396e-06
5.6396e-06
5.6641e-06
5.6641e-06
5.6641e-06
5.6641e-06
5.6641e-06
5.6641e-06
5.6885e-06
5.6641e-06
5.6885e-06
5.6885e-06
5.6885e-06
5.6641e-06
5.6885e-06
5.6885e-06
5.6885e-06
5.6641e-06
5.6885e-06
5.6641e-06
5.6885e-06
5.6641e-06
5.6885e-06
5.6641e-06
5.6885e-06
5.6885e-06
5.6885e-06
5.6885e-06
5.6885e-06
5.6885e-06
5.6885e-06
5.6885e-06
5.6885e-06
5.6641e-06
5.6885e-06
5.6885e-06
5.6885e-06
5.6885e-06
5.6885e-06
5.6885e-06
5.6885e-06
5.6885e-06
5.6885e-06
5.6885e-06
5.6885e-06
5.6885e-06
5.7129e-06
5.6885e-06
5.7129e-06
5.6885e-06
5.7129e-06
5.7129e-06
5.7129e-06
5.6885e-06
5.7129e-06
5.6885e-06
5.7129e-06
5.6885e-06
5.7129e-06
5.6885e-06
5.7129e-06
5.6885e-06
5.6885e-06
5.6885e-06
5.6885e-06
5.6885e-06
5.6885e-06
5.6885e-06
5.6885e-06
5.6885e-06
5.6885e-06
5.6885e-06
5.6885e-06
5.6641e-06
5.6885e-06
5.6885e-06
5.6885e-06
5.6641e-06
5.6885e-06
5.6641e-06
5.6641e-06
5.6641e-06
5.6641e-06
5.6641e-06
5.6641e-06
5.6641e-06
5.6641e-06
5.6641e-06
5.6641e-06
5.6641e-06
5.6641e-06
5.6641e-06
5.6641e-06
5.6641e-06
5.6885e-06
5.6641e-06
5.6641e-06
5.6641e-06
5.6885e-06
5.6885e-06
5.6885e-06
5.6641e-06
5.6885e-06
5.6885e-06
5.6885e-06
5.6641e-06
5.6885e-06
5.6885e-06
5.6885e-06
5.6885e-06
5.6885e-06
5.6885e-06
5.6885e-06
5.6885e-06
5.6885e-06
5.6885e-06
5.6885e-06
5.6885e-06
5.6885e-06
5.6885e-06
5.6885e-06
5.6885e-06
5.6885e-06
5.6885e-06
5.6885e-06
5.6885e-06
5.6885e-06
5.6885e-06
5.6885e-06
5.6885e-06
5.6885e-06
5.6885e-06
5.6641e-06
5.6641e-06
5.6885e-06
5.6641e-06
5.6641e-06
5.6641e-06
5.6641e-06
5.6641e-06
5.6641e-06
5.6641e-06
5.6641e-06
5.6396e-06
5.6396e-06
5.6396e-06
5.6396e-06
5.6396e-06
5.6396e-06
5.6396e-06
5.6396e-06
5.6396e-06
5.6396e-06
5.6396e-06
5.6396e-06
5.6396e-06
5.6396e-06
5.6152e-06
5.6396e-06
5.6152e-06
5.6396e-06
5.6152e-06
5.6152e-06
5.6152e-06
5.6152e-06
5.6152e-06
5.6152e-06
5.6152e-06
5.6152e-06
5.6152e-06
5.6152e-06
5.5908e-06
5.6152e-06
5.5908e-06
5.5908e-06
5.5908e-06
5.5908e-06
5.5908e-06
5.5664e-06
5.5664e-06
5.5664e-06
5.5664e-06
5.5664e-06
5.5664e-06
5.5664e-06
5.542e-06
5.542e-06
5.542e-06
5.542e-06
5.542e-06
5.542e-06
5.542e-06
5.542e-06
5.542e-06
5.542e-06
5.5176e-06
5.5176e-06
5.5176e-06
5.5176e-06
5.5176e-06
5.5176e-06
5.5176e-06
5.5176e-06
5.4932e-06
5.4932e-06
5.4932e-06
5.4932e-06
5.4932e-06
5.4932e-06
5.4932e-06
5.4932e-06
5.4932e-06
5.4687e-06
5.4687e-06
5.4687e-06
5.4687e-06
5.4687e-06
5.4687e-06
5.4687e-06
5.4443e-06
5.4687e-06
5.4687e-06
5.4687e-06
5.4443e-06
5.4443e-06
5.4443e-06
5.4443e-06
5.4443e-06
5.4443e-06
5.4199e-06
5.4443e-06
5.4443e-06
5.4199e-06
5.4199e-06
5.4199e-06
5.4199e-06
5.4199e-06
5.4199e-06
5.4199e-06
5.4199e-06
5.4199e-06
5.3955e-06
5.3955e-06
5.3955e-06
5.3955e-06
5.3955e-06
5.3955e-06
5.3955e-06
5.3955e-06
5.3711e-06
5.3711e-06
5.3711e-06
5.3711e-06
5.3711e-06
5.3711e-06
5.3711e-06
5.3711e-06
5.3711e-06
5.3711e-06
5.3711e-06
5.3711e-06
5.3467e-06
5.3467e-06
5.3467e-06
5.3467e-06
5.3467e-06
5.3467e-06
5.3467e-06
5.3467e-06
5.3223e-06
5.3467e-06
5.3223e-06
5.3223e-06
5.3223e-06
5.3223e-06
5.3223e-06
5.2979e-06
5.3223e-06
5.3223e-06
5.2979e-06
5.2979e-06
5.2979e-06
5.2979e-06
5.2979e-06
5.2979e-06
5.2979e-06
5.2979e-06
5.2734e-06
5.2734e-06
5.2734e-06
5.2979e-06
5.2734e-06
5.2734e-06
5.2734e-06
5.2734e-06
5.2734e-06
5.2734e-06
5.2734e-06
5.2734e-06
5.2734e-06
5.2734e-06
5.2734e-06
5.2734e-06
5.2734e-06
5.2734e-06
5.249e-06
5.2734e-06
5.249e-06
5.249e-06
5.249e-06
5.249e-06
5.249e-06
5.249e-06
5.249e-06
5.249e-06
5.2246e-06
5.249e-06
5.2246e-06
5.249e-06
5.2246e-06
5.249e-06
5.2246e-06
5.2246e-06
5.2246e-06
5.2246e-06
5.2246e-06
5.2246e-06
5.2246e-06
5.2246e-06
5.2246e-06
5.2246e-06
5.2246e-06
5.2246e-06
5.2002e-06
5.2246e-06
5.2246e-06
5.2246e-06
5.2002e-06
5.2246e-06
5.2002e-06
5.2002e-06
5.2002e-06
5.2002e-06
5.2002e-06
5.2002e-06
5.2002e-06
5.2002e-06
5.1758e-06
5.2002e-06
5.2002e-06
5.2002e-06
5.2002e-06
5.1758e-06
5.1758e-06
5.2002e-06
5.1758e-06
5.1758e-06
5.1758e-06
5.1758e-06
5.1758e-06
5.1758e-06
5.1758e-06
5.2002e-06
5.1758e-06
5.1758e-06
5.1758e-06
5.1758e-06
5.1758e-06
5.1758e-06
5.1758e-06
5.1758e-06
5.1514e-06
5.1758e-06
5.1758e-06
5.1758e-06
5.1514e-06
5.1514e-06
5.1758e-06
5.1758e-06
5.1758e-06
5.1758e-06
5.1758e-06
5.1758e-06
5.1758e-06
5.1758e-06
5.1758e-06
5.1758e-06
5.1758e-06
5.1758e-06
5.1514e-06
5.1758e-06
5.1758e-06
5.1758e-06
5.1514e-06
5.1758e-06
5.1514e-06
5.1758e-06
5.1514e-06
5.1758e-06
5.1514e-06
5.1758e-06
5.1514e-06
5.1758e-06
5.1514e-06
5.1514e-06
5.1514e-06
5.1514e-06
5.1514e-06
5.1514e-06
5.1514e-06
5.1514e-06
5.1514e-06
5.1514e-06
5.1514e-06
5.1514e-06
5.1514e-06
5.1514e-06
5.1514e-06
5.1514e-06
5.1514e-06
5.1514e-06
5.127e-06
5.127e-06
5.1514e-06
5.1514e-06
5.127e-06
5.127e-06
5.127e-06
5.1514e-06
5.127e-06
5.127e-06
5.127e-06
5.127e-06
5.127e-06
5.127e-06
5.127e-06
5.127e-06
5.1025e-06
5.127e-06
5.1025e-06
5.127e-06
5.127e-06
5.127e-06
5.127e-06
5.127e-06
5.127e-06
5.1025e-06
5.127e-06
5.127e-06
5.1025e-06
5.1025e-06
5.1025e-06
5.1025e-06
5.1025e-06
5.1025e-06
5.1025e-06
5.1025e-06
5.1025e-06
5.1025e-06
5.1025e-06
5.1025e-06
5.1025e-06
5.1025e-06
5.1025e-06
5.1025e-06
5.1025e-06
5.1025e-06
5.0781e-06
5.1025e-06
5.0781e-06
5.1025e-06
5.0781e-06
5.1025e-06
5.1025e-06
5.1025e-06
5.0781e-06
5.1025e-06
5.0781e-06
5.1025e-06
5.0781e-06
5.0781e-06
5.0781e-06
5.0781e-06
5.0781e-06
5.0781e-06
5.0781e-06
5.0781e-06
5.0781e-06
5.0781e-06
5.0781e-06
5.1025e-06
5.0781e-06
5.0781e-06
5.0781e-06
5.0781e-06
5.0781e-06
5.0781e-06
5.0781e-06
5.0781e-06
5.0781e-06
5.0781e-06
5.0781e-06
5.0781e-06
5.0781e-06
5.0781e-06
5.0537e-06
5.0781e-06
5.0781e-06
5.0781e-06
5.0781e-06
5.0781e-06
5.0781e-06
5.0781e-06
5.0537e-06
5.0781e-06
5.0537e-06
5.0781e-06
5.0781e-06
5.0781e-06
5.0781e-06
5.0781e-06
5.0781e-06
5.0781e-06
5.0537e-06
5.0781e-06
5.0537e-06
5.0781e-06
5.0781e-06
5.0781e-06
5.0781e-06
5.0781e-06
5.0781e-06
5.0537e-06
5.0537e-06
5.0781e-06
5.0537e-06
5.0781e-06
5.0537e-06
5.0537e-06
5.0781e-06
5.0781e-06
5.0537e-06
5.0781e-06
5.0781e-06
5.0781e-06
5.0537e-06
5.0781e-06
5.0537e-06
5.0781e-06
5.0537e-06
5.0781e-06
5.0537e-06
5.0781e-06
5.0537e-06
5.0781e-06
5.0537e-06
5.0781e-06
5.0537e-06
5.0537e-06
5.0537e-06
5.0537e-06
5.0537e-06
5.0781e-06
5.0537e-06
5.0537e-06
5.0537e-06
5.0537e-06
5.0537e-06
5.0537e-06
5.0537e-06
5.0537e-06
5.0537e-06
5.0781e-06
5.0537e-06
5.0781e-06
5.0537e-06
5.0537e-06
5.0537e-06
5.0537e-06
5.0537e-06
5.0537e-06
5.0537e-06
5.0537e-06
5.0537e-06
5.0537e-06
5.0537e-06
5.0537e-06
5.0537e-06
5.0537e-06
5.0537e-06
5.0537e-06
5.0537e-06
5.0537e-06
5.0537e-06
5.0537e-06
5.0537e-06
5.0537e-06
5.0537e-06
5.0537e-06
5.0537e-06
5.0537e-06
5.0537e-06
5.0537e-06
5.0537e-06
5.0537e-06
5.0537e-06
5.0537e-06
5.0537e-06
5.0537e-06
5.0537e-06
5.0537e-06
5.0537e-06
5.0537e-06
5.0537e-06
5.0537e-06
5.0537e-06
5.0537e-06
5.0537e-06
5.0537e-06
5.0537e-06
5.0537e-06
5.0537e-06
5.0537e-06
5.0537e-06
5.0537e-06
5.0537e-06
5.0537e-06
5.0537e-06
5.0537e-06
5.0537e-06
5.0537e-06
5.0537e-06
5.0537e-06
5.0537e-06
5.0537e-06
5.0537e-06
5.0537e-06
5.0537e-06
5.0537e-06
5.0537e-06
5.0537e-06
5.0537e-06
5.0537e-06
5.0537e-06
5.0537e-06
5.0537e-06
5.0537e-06
5.0537e-06
5.0537e-06
5.0537e-06
5.0537e-06
5.0537e-06
5.0537e-06
5.0537e-06
5.0537e-06
5.0537e-06
5.0537e-06
5.0537e-06
5.0537e-06
5.0537e-06
5.0537e-06
5.0537e-06
5.0537e-06
5.0537e-06
5.0537e-06
5.0537e-06
5.0537e-06
5.0537e-06
5.0537e-06
5.0537e-06
5.0537e-06
5.0537e-06
5.0537e-06
5.0537e-06
5.0537e-06
5.0293e-06
5.0537e-06
5.0293e-06
5.0293e-06
5.0293e-06
5.0537e-06
5.0537e-06
5.0537e-06
5.0293e-06
5.0537e-06
5.0537e-06
5.0293e-06
5.0537e-06
5.0537e-06
5.0293e-06
5.0537e-06
5.0293e-06
5.0293e-06
5.0293e-06
5.0293e-06
5.0293e-06
5.0293e-06
5.0293e-06
5.0293e-06
5.0293e-06
5.0293e-06
5.0293e-06
5.0293e-06
5.0293e-06
5.0293e-06
5.0293e-06
5.0293e-06
5.0293e-06
5.0293e-06
5.0293e-06
5.0293e-06
5.0293e-06
5.0293e-06
5.0293e-06
5.0293e-06
5.0049e-06
5.0293e-06
5.0049e-06
5.0293e-06
5.0293e-06
5.0293e-06
5.0293e-06
5.0293e-06
5.0293e-06
5.0293e-06
5.0049e-06
5.0049e-06
5.0049e-06
5.0049e-06
5.0049e-06
5.0049e-06
5.0049e-06
5.0049e-06
5.0049e-06
5.0049e-06
5.0049e-06
5.0049e-06
5.0049e-06
5.0049e-06
5.0049e-06
5.0049e-06
5.0049e-06
5.0049e-06
5.0049e-06
5.0049e-06
5.0049e-06
5.0049e-06
5.0049e-06
5.0049e-06
5.0049e-06
5.0049e-06
5.0049e-06
5.0049e-06
4.9805e-06
5.0049e-06
4.9805e-06
5.0049e-06
4.9805e-06
5.0049e-06
5.0049e-06
5.0049e-06
5.0049e-06
5.0049e-06
5.0049e-06
5.0049e-06
4.9805e-06
5.0049e-06
4.9805e-06
5.0049e-06
4.9805e-06
5.0049e-06
4.9805e-06
4.9805e-06
4.9805e-06
5.0049e-06
4.9805e-06
4.9805e-06
4.9805e-06
5.0049e-06
4.9805e-06
4.9805e-06
4.9805e-06
4.9805e-06
4.9805e-06
4.9805e-06
4.9805e-06
4.9805e-06
4.9805e-06
4.9805e-06
4.9805e-06
4.9805e-06
4.9805e-06
4.9805e-06
4.9805e-06
4.9805e-06
4.9805e-06
4.9805e-06
4.9805e-06
4.9805e-06
4.9805e-06
4.9805e-06
4.9805e-06
4.9805e-06
4.9805e-06
4.9805e-06
4.9561e-06
4.9805e-06
4.9805e-06
4.9805e-06
4.9805e-06
4.9805e-06
4.9805e-06
4.9805e-06
4.9805e-06
4.9805e-06
4.9805e-06
4.9805e-06
4.9561e-06
4.9805e-06
4.9805e-06
4.9805e-06
4.9805e-06
4.9561e-06
4.9561e-06
4.9561e-06
4.9561e-06
4.9805e-06
4.9561e-06
4.9561e-06
4.9561e-06
4.9561e-06
4.9561e-06
4.9561e-06
4.9561e-06
4.9561e-06
4.9561e-06
4.9561e-06
4.9561e-06
4.9561e-06
4.9561e-06
4.9561e-06
4.9561e-06
4.9561e-06
4.9561e-06
4.9561e-06
4.9561e-06
4.9561e-06
4.9561e-06
4.9561e-06
4.9561e-06
4.9561e-06
4.9561e-06
4.9561e-06
4.9316e-06
4.9561e-06
4.9561e-06
4.9561e-06
4.9561e-06
4.9561e-06
4.9561e-06
4.9561e-06
4.9561e-06
4.9561e-06
4.9561e-06
4.9561e-06
4.9316e-06
4.9561e-06
4.9561e-06
4.9561e-06
4.9316e-06
4.9561e-06
4.9316e-06
4.9561e-06
4.9561e-06
4.9561e-06
4.9561e-06
4.9561e-06
4.9316e-06
4.9316e-06
4.9316e-06
4.9561e-06
4.9316e-06
4.9561e-06
4.9316e-06
4.9316e-06
4.9316e-06
4.9316e-06
4.9316e-06
4.9316e-06
4.9316e-06
4.9316e-06
4.9316e-06
4.9316e-06
4.9316e-06
4.9316e-06
4.9316e-06
4.9316e-06
4.9316e-06
4.9316e-06
4.9316e-06
4.9316e-06
4.9316e-06
4.9316e-06
4.9316e-06
4.9316e-06
4.9316e-06
4.9316e-06
4.9316e-06
4.9316e-06
4.9316e-06
4.9316e-06
4.9316e-06
4.9316e-06
4.9072e-06
4.9316e-06
4.9072e-06
4.9072e-06
4.9072e-06
4.9072e-06
4.9316e-06
4.9072e-06
4.9316e-06
4.9316e-06
4.9072e-06
4.9072e-06
4.9072e-06
4.9316e-06
4.9316e-06
4.9316e-06
4.9072e-06
4.9316e-06
4.9316e-06
4.9316e-06
4.9072e-06
4.9072e-06
4.9316e-06
4.9316e-06
4.9072e-06
4.9072e-06
4.9316e-06
4.9316e-06
4.9316e-06
4.9316e-06
4.9316e-06
4.9072e-06
4.9072e-06
4.9316e-06
4.9316e-06
4.9072e-06
4.9316e-06
4.9316e-06
4.9072e-06
4.9316e-06
4.9316e-06
4.9316e-06
4.9072e-06
4.9316e-06
4.9072e-06
4.9072e-06
4.9072e-06
4.9072e-06
4.9072e-06
4.9316e-06
4.9316e-06
4.9316e-06
4.9316e-06
4.9072e-06
4.9072e-06
4.9072e-06
4.9072e-06
4.9316e-06
4.9072e-06
4.9072e-06
4.9072e-06
4.9316e-06
4.9072e-06
4.9316e-06
4.9072e-06
4.9072e-06
4.9072e-06
4.9072e-06
4.9316e-06
4.9316e-06
4.9072e-06
4.9072e-06
4.9072e-06
4.9072e-06
4.9316e-06
4.9072e-06
4.9072e-06
4.9316e-06
4.9316e-06
4.9316e-06
4.9072e-06
4.9316e-06
4.9316e-06
4.9316e-06
4.9072e-06
4.9072e-06
4.9072e-06
4.9072e-06
4.9072e-06
4.9072e-06
4.9072e-06
4.9072e-06
4.9072e-06
4.9316e-06
4.9072e-06
4.9072e-06
4.9316e-06
4.9316e-06
4.9072e-06
4.9072e-06
4.9072e-06
4.9072e-06
4.9072e-06
4.9072e-06
4.9072e-06
4.9316e-06
4.9072e-06
4.9072e-06
4.9072e-06
4.9072e-06
4.9072e-06
4.9072e-06
4.9072e-06
4.9072e-06
4.9072e-06
4.9072e-06
4.9072e-06
4.9072e-06
4.9072e-06
4.9072e-06
4.9072e-06
4.9072e-06
4.9072e-06
4.9072e-06
4.9072e-06
4.9072e-06
4.9072e-06
4.9072e-06
4.9072e-06
4.9072e-06
4.9072e-06
4.9072e-06
4.9072e-06
4.9072e-06
4.9072e-06
4.9072e-06
4.9072e-06
4.9072e-06
4.9072e-06
4.9072e-06
4.9072e-06
4.9072e-06
4.9072e-06
4.9072e-06
4.9072e-06
4.9072e-06
4.9072e-06
4.9072e-06
4.8828e-06
4.9072e-06
4.9072e-06
4.9072e-06
4.9072e-06
4.9072e-06
4.9072e-06
4.9072e-06
4.9072e-06
4.9072e-06
4.8828e-06
4.9072e-06
4.9072e-06
4.9072e-06
4.9072e-06
4.9072e-06
4.8828e-06
4.9072e-06
4.9072e-06
4.9072e-06
4.8828e-06
4.9072e-06
4.9072e-06
4.8828e-06
4.8828e-06
4.9072e-06
4.8828e-06
4.8828e-06
4.8828e-06
4.8828e-06
4.8828e-06
4.8828e-06
4.8828e-06
4.8828e-06
4.8828e-06
4.8828e-06
4.8828e-06
4.8828e-06
4.8828e-06
4.8828e-06
4.8828e-06
4.8828e-06
4.8828e-06
4.8828e-06
4.8828e-06
4.8828e-06
4.8828e-06
4.8828e-06
4.8828e-06
4.8828e-06
4.8828e-06
4.8828e-06
4.8828e-06
4.8828e-06
4.8584e-06
4.8828e-06
4.8828e-06
4.8828e-06
4.8828e-06
4.8828e-06
4.8584e-06
4.8828e-06
4.8584e-06
4.8828e-06
4.8584e-06
4.8828e-06
4.8584e-06
4.8584e-06
4.8584e-06
4.8828e-06
4.8584e-06
4.8584e-06
4.8584e-06
4.8584e-06
4.8584e-06
4.8584e-06
4.8584e-06
4.8584e-06
4.8584e-06
4.8584e-06
4.8584e-06
4.8584e-06
4.8584e-06
4.8584e-06
4.8584e-06
4.8584e-06
4.8584e-06
4.8584e-06
4.8584e-06
4.8584e-06
4.8584e-06
4.8584e-06
4.8584e-06
4.8584e-06
4.8584e-06
4.8584e-06
4.8584e-06
4.8584e-06
4.8584e-06
4.8584e-06
4.8584e-06
4.8584e-06
4.8584e-06
4.8584e-06
4.8584e-06
4.8584e-06
4.8584e-06
4.8584e-06
4.8584e-06
4.8584e-06
4.8584e-06
4.8584e-06
4.8584e-06
4.8584e-06
4.8584e-06
4.8584e-06
4.8584e-06
4.8584e-06
4.834e-06
4.8584e-06
4.8584e-06
4.8584e-06
4.8584e-06
4.834e-06
4.834e-06
4.8584e-06
4.8584e-06
4.8584e-06
4.8584e-06
4.8584e-06
4.8584e-06
4.834e-06
4.8584e-06
4.834e-06
4.834e-06
4.8584e-06
4.8584e-06
4.8584e-06
4.8584e-06
4.8584e-06
4.834e-06
4.834e-06
4.834e-06
4.834e-06
4.834e-06
4.8584e-06
4.834e-06
4.834e-06
4.834e-06
4.8584e-06
4.834e-06
4.834e-06
4.834e-06
4.834e-06
4.834e-06
4.834e-06
4.834e-06
4.834e-06
4.834e-06
4.834e-06
4.834e-06
4.834e-06
4.834e-06
4.834e-06
4.834e-06
4.834e-06
4.834e-06
4.834e-06
4.834e-06
4.834e-06
4.834e-06
4.8096e-06
4.8096e-06
4.834e-06
4.834e-06
4.8096e-06
4.8096e-06
4.834e-06
4.834e-06
4.834e-06
4.8096e-06
4.8096e-06
4.834e-06
4.834e-06
4.8096e-06
4.834e-06
4.834e-06
4.834e-06
4.8096e-06
4.834e-06
4.8096e-06
4.8096e-06
4.8096e-06
4.8096e-06
4.8096e-06
4.8096e-06
4.8096e-06
4.8096e-06
4.8096e-06
4.8096e-06
4.8096e-06
4.8096e-06
4.8096e-06
4.8096e-06
4.8096e-06
4.8096e-06
4.8096e-06
4.8096e-06
4.8096e-06
4.8096e-06
4.7852e-06
4.7852e-06
4.7852e-06
4.8096e-06
4.8096e-06
4.8096e-06
4.8096e-06
4.8096e-06
4.8096e-06
4.8096e-06
4.8096e-06
4.8096e-06
4.7852e-06
4.7852e-06
4.7852e-06
4.7852e-06
4.7852e-06
4.8096e-06
4.7852e-06
4.8096e-06
4.7852e-06
4.7852e-06
4.7852e-06
4.8096e-06
4.7852e-06
4.7852e-06
4.7852e-06
4.7852e-06
4.7852e-06
4.7852e-06
4.7852e-06
4.7852e-06
4.7852e-06
4.7852e-06
4.7852e-06
4.7852e-06
4.7852e-06
4.7852e-06
4.7852e-06
4.7852e-06
4.7852e-06
4.7852e-06
4.7852e-06
4.7852e-06
4.7852e-06
4.7852e-06
4.7852e-06
4.7852e-06
4.7852e-06
4.7852e-06
4.7852e-06
4.7852e-06
4.7852e-06
4.7852e-06
4.7852e-06
4.7852e-06
4.7852e-06
4.7852e-06
4.7852e-06
4.7852e-06
4.7852e-06
4.7852e-06
4.7852e-06
4.7852e-06
4.7852e-06
4.7852e-06
4.7852e-06
4.7852e-06
4.7852e-06
4.7852e-06
4.7852e-06
4.7852e-06
4.7852e-06
4.7852e-06
4.7852e-06
4.7852e-06
4.7852e-06
4.7852e-06
4.7852e-06
4.7852e-06
4.7852e-06
4.7852e-06
4.7852e-06
4.7852e-06
4.7852e-06
4.7852e-06
4.7852e-06
4.7852e-06
4.7852e-06
4.7852e-06
4.7852e-06
4.7852e-06
4.7852e-06
4.7852e-06
4.7852e-06
4.7852e-06
4.7852e-06
4.7852e-06
4.7852e-06
4.7852e-06
4.7852e-06
4.7852e-06
4.7852e-06
4.7852e-06
4.7852e-06
4.7852e-06
4.7852e-06
4.7852e-06
4.7852e-06
4.7852e-06
4.7852e-06
4.7852e-06
4.7852e-06
4.7852e-06
4.7852e-06
4.7852e-06
4.7852e-06
4.7852e-06
4.7852e-06
4.7852e-06
4.7852e-06
4.7852e-06
4.7852e-06
4.7852e-06
4.7607e-06
4.7852e-06
4.7852e-06
4.7607e-06
4.7852e-06
4.7852e-06
4.7607e-06
4.7852e-06
4.7852e-06
4.7852e-06
4.7852e-06
4.7852e-06
4.7852e-06
4.7852e-06
4.7852e-06
4.7852e-06
4.7852e-06
4.7852e-06
4.7852e-06
4.7852e-06
4.7852e-06
4.7852e-06
4.7852e-06
4.7852e-06
4.7607e-06
4.7607e-06
4.7852e-06
4.7607e-06
4.7607e-06
4.7607e-06
4.7852e-06
4.7607e-06
4.7607e-06
4.7852e-06
4.7852e-06
4.7852e-06
4.7852e-06
4.7852e-06
4.7607e-06
4.7607e-06
4.7852e-06
4.7852e-06
4.7852e-06
4.7607e-06
4.7607e-06
4.7852e-06
4.7607e-06
4.7607e-06
4.7607e-06
4.7607e-06
4.7607e-06
4.7852e-06
4.7607e-06
4.7607e-06
4.7607e-06
4.7607e-06
4.7607e-06
4.7607e-06
4.7607e-06
4.7607e-06
4.7607e-06
4.7607e-06
4.7607e-06
4.7607e-06
4.7607e-06
4.7607e-06
4.7607e-06
4.7607e-06
4.7607e-06
4.7607e-06
4.7607e-06
4.7607e-06
4.7607e-06
4.7607e-06
4.7607e-06
4.7607e-06
4.7607e-06
4.7607e-06
4.7607e-06
4.7607e-06
4.7607e-06
4.7607e-06
4.7607e-06
4.7607e-06
4.7607e-06
4.7607e-06
4.7607e-06
4.7607e-06
4.7607e-06
4.7607e-06
4.7607e-06
4.7607e-06
4.7607e-06
4.7607e-06
4.7607e-06
4.7607e-06
4.7607e-06
4.7607e-06
4.7607e-06
4.7607e-06
4.7607e-06
4.7607e-06
4.7607e-06
4.7607e-06
4.7607e-06
4.7607e-06
4.7607e-06
4.7607e-06
4.7607e-06
4.7607e-06
4.7607e-06
4.7607e-06
4.7607e-06
4.7607e-06
4.7607e-06
4.7607e-06
4.7607e-06
4.7607e-06
4.7607e-06
4.7607e-06
4.7607e-06
4.7607e-06
4.7607e-06
4.7607e-06
4.7607e-06
4.7607e-06
4.7607e-06
4.7607e-06
4.7607e-06
4.7607e-06
4.7607e-06
4.7607e-06
4.7607e-06
4.7607e-06
4.7607e-06
4.7607e-06
4.7607e-06
4.7607e-06
4.7607e-06
4.7607e-06
4.7607e-06
4.7607e-06
4.7607e-06
4.7607e-06
4.7607e-06
4.7607e-06
4.7607e-06
4.7607e-06
4.7607e-06
4.7607e-06
4.7607e-06
4.7607e-06
4.7607e-06
4.7607e-06
4.7607e-06
4.7607e-06
4.7607e-06
4.7607e-06
4.7607e-06
4.7607e-06
4.7607e-06
4.7607e-06
4.7607e-06
4.7607e-06
4.7607e-06
4.7607e-06
4.7607e-06
4.7852e-06
4.7607e-06
4.7852e-06
4.7852e-06
4.7607e-06
4.7852e-06
4.7852e-06
4.7607e-06
4.7852e-06
4.7607e-06
4.7852e-06
4.7852e-06
4.7852e-06
4.7607e-06
4.7852e-06
4.7852e-06
4.7852e-06
4.7852e-06
4.7852e-06
4.7607e-06
4.7852e-06
4.7852e-06
4.7852e-06
4.7852e-06
4.7852e-06
4.7852e-06
4.8096e-06
4.7852e-06
4.7852e-06
4.8096e-06
4.7852e-06
4.8096e-06
4.8096e-06
4.7852e-06
4.8096e-06
4.8096e-06
4.8096e-06
4.8096e-06
4.8096e-06
4.8096e-06
4.8096e-06
4.8096e-06
4.8096e-06
4.8096e-06
4.8096e-06
4.8096e-06
4.8096e-06
4.8096e-06
4.8096e-06
4.834e-06
4.834e-06
4.8096e-06
4.834e-06
4.8096e-06
4.834e-06
4.834e-06
4.834e-06
4.834e-06
4.8096e-06
4.834e-06
4.834e-06
4.834e-06
4.834e-06
4.834e-06
4.834e-06
4.834e-06
4.834e-06
4.834e-06
4.834e-06
4.834e-06
4.834e-06
4.834e-06
4.834e-06
4.834e-06
4.834e-06
4.834e-06
4.834e-06
4.8584e-06
4.8584e-06
4.834e-06
4.8584e-06
4.8584e-06
4.8584e-06
4.834e-06
4.8584e-06
4.8584e-06
4.8584e-06
4.834e-06
4.8584e-06
4.8584e-06
4.8584e-06
4.8584e-06
4.8584e-06
4.8584e-06
4.8584e-06
4.8584e-06
4.8584e-06
4.8584e-06
4.8584e-06
4.8584e-06
4.8584e-06
4.8584e-06
4.8584e-06
4.8584e-06
4.8584e-06
4.8584e-06
4.8584e-06
4.8584e-06
4.8584e-06
4.8584e-06
4.8584e-06
4.8584e-06
4.8828e-06
4.8584e-06
4.8584e-06
4.8584e-06
4.8828e-06
4.8828e-06
4.8828e-06
4.8828e-06
4.8828e-06
4.9072e-06
4.9072e-06
4.9072e-06
4.9072e-06
4.9072e-06
4.9072e-06
4.9072e-06
4.9072e-06
4.9316e-06
4.9316e-06
4.9072e-06
4.9316e-06
4.9316e-06
4.9316e-06
4.9561e-06
4.9561e-06
4.9561e-06
4.9561e-06
4.9561e-06
4.9805e-06
4.9805e-06
4.9805e-06
4.9805e-06
4.9805e-06
4.9805e-06
5.0049e-06
5.0049e-06
5.0049e-06
5.0049e-06
5.0293e-06
5.0293e-06
5.0537e-06
5.0537e-06
5.0537e-06
5.0537e-06
5.0537e-06
5.0537e-06
5.0781e-06
5.0781e-06
5.1025e-06
5.1025e-06
5.1025e-06
5.1025e-06
5.127e-06
5.127e-06
5.127e-06
5.1514e-06
5.1514e-06
5.1514e-06
5.1514e-06
5.1758e-06
5.1758e-06
5.1758e-06
5.1758e-06
5.2002e-06
5.2246e-06
5.2246e-06
5.2246e-06
5.2246e-06
5.249e-06
5.249e-06
5.249e-06
5.249e-06
5.2734e-06
5.2734e-06
5.2979e-06
5.2734e-06
5.2979e-06
5.2979e-06
5.2979e-06
5.3223e-06
5.3467e-06
5.3467e-06
5.3467e-06
5.3711e-06
5.3711e-06
5.3711e-06
5.3711e-06
5.3955e-06
5.3955e-06
5.3955e-06
5.4199e-06
5.4199e-06
5.4199e-06
5.4443e-06
5.4443e-06
5.4443e-06
5.4443e-06
5.4687e-06
5.4687e-06
5.4687e-06
5.4687e-06
5.4687e-06
5.4932e-06
5.4932e-06
5.5176e-06
5.4932e-06
5.5176e-06
5.5176e-06
5.542e-06
5.542e-06
5.542e-06
5.542e-06
5.542e-06
5.542e-06
5.542e-06
5.5664e-06
5.5664e-06
5.5664e-06
5.5908e-06
5.5908e-06
5.6152e-06
5.5908e-06
5.6152e-06
5.6152e-06
5.6396e-06
5.6152e-06
5.6396e-06
5.6396e-06
5.6396e-06
5.6396e-06
5.6396e-06
5.6396e-06
5.6641e-06
5.6641e-06
5.6641e-06
5.6641e-06
5.6641e-06
5.6885e-06
5.6885e-06
5.6885e-06
5.6885e-06
5.6885e-06
5.6885e-06
5.7129e-06
5.7129e-06
5.7129e-06
5.7129e-06
5.7129e-06
5.7373e-06
5.7129e-06
5.7373e-06
5.7373e-06
5.7373e-06
5.7373e-06
5.7373e-06
5.7617e-06
5.7373e-06
5.7617e-06
5.7617e-06
5.7617e-06
5.7617e-06
5.7617e-06
5.7617e-06
5.7617e-06
5.7617e-06
5.7617e-06
5.7617e-06
5.7617e-06
5.7617e-06
5.7617e-06
5.7617e-06
5.7617e-06
5.7617e-06
5.7617e-06
5.7617e-06
5.7617e-06
5.7861e-06
5.7617e-06
5.7617e-06
5.7617e-06
5.7861e-06
5.7617e-06
5.7617e-06
5.7617e-06
5.7617e-06
5.7617e-06
5.7617e-06
5.7617e-06
5.7617e-06
5.7617e-06
5.7617e-06
5.7617e-06
5.7617e-06
5.7617e-06
5.7617e-06
5.7617e-06
5.7617e-06
5.7617e-06
5.7617e-06
5.7617e-06
5.7617e-06
5.7617e-06
5.7617e-06
5.7617e-06
5.7617e-06
5.7617e-06
5.7373e-06
5.7373e-06
5.7373e-06
5.7373e-06
5.7373e-06
5.7373e-06
5.7373e-06
5.7373e-06
5.7373e-06
5.7373e-06
5.7373e-06
5.7373e-06
5.7129e-06
5.7373e-06
5.7373e-06
5.7129e-06
5.7129e-06
5.7129e-06
5.7129e-06
5.7129e-06
5.7129e-06
5.7129e-06
5.7129e-06
5.7129e-06
5.7129e-06
5.7129e-06
5.7129e-06
5.6885e-06
5.7129e-06
5.6885e-06
5.6885e-06
5.6885e-06
5.6885e-06
5.6885e-06
5.6885e-06
5.6885e-06
5.6885e-06
5.6885e-06
5.6885e-06
5.6885e-06
5.6885e-06
5.6641e-06
5.6885e-06
5.6885e-06
5.6885e-06
5.6641e-06
5.6641e-06
5.6641e-06
5.6641e-06
5.6641e-06
5.6641e-06
5.6641e-06
5.6641e-06
5.6396e-06
5.6396e-06
5.6396e-06
5.6396e-06
5.6396e-06
5.6396e-06
5.6396e-06
5.6396e-06
5.6396e-06
5.6396e-06
5.6396e-06
5.6152e-06
5.6152e-06
5.6152e-06
5.6152e-06
5.6152e-06
5.6152e-06
5.6152e-06
5.6152e-06
5.6152e-06
5.5908e-06
5.6152e-06
5.5908e-06
5.5908e-06
5.5908e-06
5.5908e-06
5.5664e-06
5.5664e-06
5.5664e-06
5.5664e-06
5.5664e-06
5.5664e-06
5.542e-06
5.5664e-06
5.5664e-06
5.542e-06
5.542e-06
5.542e-06
5.542e-06
5.542e-06
5.542e-06
5.542e-06
5.542e-06
5.542e-06
5.5176e-06
5.542e-06
5.5176e-06
5.5176e-06
5.5176e-06
5.5176e-06
5.5176e-06
5.5176e-06
5.4932e-06
5.4932e-06
5.4932e-06
5.4932e-06
5.4932e-06
5.4932e-06
5.4932e-06
5.4932e-06
5.4932e-06
5.4932e-06
5.4932e-06
5.4932e-06
5.4687e-06
5.4932e-06
5.4687e-06
5.4687e-06
5.4687e-06
5.4687e-06
5.4687e-06
5.4687e-06
5.4443e-06
5.4443e-06
5.4443e-06
5.4443e-06
5.4443e-06
5.4443e-06
5.4443e-06
5.4443e-06
5.4443e-06
5.4443e-06
5.4199e-06
5.4443e-06
5.4199e-06
5.4199e-06
5.4199e-06
5.4199e-06
5.4199e-06
5.4199e-06
5.4199e-06
5.4199e-06
5.3955e-06
5.4199e-06
5.3955e-06
5.4199e-06
5.3955e-06
5.3955e-06
5.3955e-06
5.3955e-06
5.3955e-06
5.3955e-06
5.3955e-06
5.3955e-06
5.3955e-06
5.3711e-06
5.3711e-06
5.3711e-06
5.3711e-06
5.3711e-06
5.3711e-06
5.3711e-06
5.3711e-06
5.3711e-06
5.3711e-06
5.3467e-06
5.3711e-06
5.3711e-06
5.3711e-06
5.3467e-06
5.3467e-06
5.3467e-06
5.3467e-06
5.3467e-06
5.3467e-06
5.3467e-06
5.3467e-06
5.3467e-06
5.3467e-06
5.3467e-06
5.3223e-06
5.3223e-06
5.3223e-06
5.3223e-06
5.3223e-06
5.3223e-06
5.3223e-06
5.3223e-06
5.3223e-06
5.2979e-06
5.2979e-06
5.3223e-06
5.2979e-06
5.2979e-06
5.2979e-06
5.2979e-06
5.2979e-06
5.2979e-06
5.2979e-06
5.2979e-06
5.2979e-06
5.2734e-06
5.2979e-06
5.2979e-06
5.2734e-06
5.2979e-06
5.2734e-06
5.2979e-06
5.2734e-06
5.2734e-06
5.2734e-06
5.2734e-06
5.2734e-06
5.2734e-06
5.2734e-06
5.2734e-06
5.2734e-06
5.2734e-06
5.2734e-06
5.2734e-06
5.2734e-06
5.249e-06
5.2734e-06
5.2734e-06
5.249e-06
5.249e-06
5.249e-06
5.249e-06
5.249e-06
5.249e-06
5.249e-06
5.249e-06
5.249e-06
5.249e-06
5.2246e-06
5.249e-06
5.249e-06
5.249e-06
5.249e-06
5.2246e-06
5.2246e-06
5.2246e-06
5.2246e-06
5.249e-06
5.2246e-06
5.2246e-06
5.2246e-06
5.2246e-06
5.2246e-06
5.2246e-06
5.2246e-06
5.2246e-06
5.2246e-06
5.2246e-06
5.2246e-06
5.2246e-06
5.2002e-06
5.2002e-06
5.2002e-06
5.2002e-06
5.2002e-06
5.2002e-06
5.2002e-06
5.2002e-06
5.2002e-06
5.2002e-06
5.2002e-06
5.2002e-06
5.2002e-06
5.2002e-06
5.2002e-06
5.2002e-06
5.1758e-06
5.1758e-06
5.1758e-06
5.1758e-06
5.2002e-06
5.2002e-06
5.2002e-06
5.1758e-06
5.1758e-06
5.2002e-06
5.1758e-06
5.1758e-06
5.1758e-06
5.1758e-06
5.1758e-06
5.1758e-06
5.1758e-06
5.1758e-06
5.1758e-06
5.1758e-06
5.1758e-06
5.1758e-06
5.1758e-06
5.1758e-06
5.1758e-06
5.1758e-06
5.1758e-06
5.1758e-06
5.1758e-06
5.1758e-06
5.1758e-06
5.1758e-06
5.1758e-06
5.1758e-06
5.1758e-06
5.1758e-06
5.1758e-06
5.1758e-06
5.1758e-06
5.1758e-06
5.1758e-06
5.1758e-06
5.1758e-06
5.1758e-06
5.1758e-06
5.1758e-06
5.1514e-06
5.1758e-06
5.1758e-06
5.1758e-06
5.1514e-06
5.1514e-06
5.1514e-06
5.1514e-06
5.1514e-06
5.1514e-06
5.1514e-06
5.1514e-06
5.1514e-06
5.1514e-06
5.1514e-06
5.1514e-06
5.1514e-06
5.1514e-06
5.1514e-06
5.1514e-06
5.1514e-06
5.1514e-06
5.1514e-06
5.1514e-06
5.1514e-06
5.1514e-06
5.1514e-06
5.1514e-06
5.1514e-06
5.1514e-06
5.1514e-06
5.1514e-06
5.1514e-06
5.1514e-06
5.1514e-06
5.1514e-06
5.127e-06
5.1514e-06
5.1514e-06
5.1514e-06
5.1514e-06
5.1514e-06
5.1514e-06
5.127e-06
5.1514e-06
5.1514e-06
5.1514e-06
5.127e-06
5.127e-06
5.1514e-06
5.127e-06
5.127e-06
5.127e-06
5.127e-06
5.127e-06
5.127e-06
5.127e-06
5.127e-06
5.127e-06
5.127e-06
5.127e-06
5.127e-06
5.1025e-06
5.127e-06
5.1025e-06
5.127e-06
5.127e-06
5.127e-06
5.127e-06
5.1025e-06
5.127e-06
5.127e-06
5.1025e-06
5.127e-06
5.1025e-06
5.127e-06
5.127e-06
5.1025e-06
5.1025e-06
5.1025e-06
5.1025e-06
5.1025e-06
5.1025e-06
5.1025e-06
5.1025e-06
5.1025e-06
5.1025e-06
5.1025e-06
5.1025e-06
5.1025e-06
5.1025e-06
5.1025e-06
5.1025e-06
5.1025e-06
5.1025e-06
5.1025e-06
5.1025e-06
5.1025e-06
5.1025e-06
5.1025e-06
5.1025e-06
5.1025e-06
5.1025e-06
5.1025e-06
5.0781e-06
5.0781e-06
5.0781e-06
5.1025e-06
5.0781e-06
5.1025e-06
5.0781e-06
5.1025e-06
5.0781e-06
5.0781e-06
5.0781e-06
5.0781e-06
5.1025e-06
5.1025e-06
5.1025e-06
5.0781e-06
5.1025e-06
5.0781e-06
5.0781e-06
5.0781e-06
5.0781e-06
5.0781e-06
5.0781e-06
5.0781e-06
5.0781e-06
5.0781e-06
5.0781e-06
5.0781e-06
5.0781e-06
5.0781e-06
5.0781e-06
5.0781e-06
5.0781e-06
5.0781e-06
5.0781e-06
5.0781e-06
5.0537e-06
5.0781e-06
5.0537e-06
5.0781e-06
5.0781e-06
5.0781e-06
5.0537e-06
5.0537e-06
5.0537e-06
5.0781e-06
5.0781e-06
5.0537e-06
5.0781e-06
5.0537e-06
5.0537e-06
5.0781e-06
5.0537e-06
5.0781e-06
5.0537e-06
5.0537e-06
5.0537e-06
5.0537e-06
5.0537e-06
5.0537e-06
5.0537e-06
5.0537e-06
5.0537e-06
5.0537e-06
5.0537e-06
5.0537e-06
5.0537e-06
5.0537e-06
5.0537e-06
5.0537e-06
5.0537e-06
5.0537e-06
5.0537e-06
5.0537e-06
5.0537e-06
5.0537e-06
5.0537e-06
5.0537e-06
5.0537e-06
5.0537e-06
5.0537e-06
5.0537e-06
5.0537e-06
5.0537e-06
5.0537e-06
5.0537e-06
5.0537e-06
5.0537e-06
5.0537e-06
5.0537e-06
5.0537e-06
5.0537e-06
5.0537e-06
5.0537e-06
5.0537e-06
5.0537e-06
5.0293e-06
5.0537e-06
5.0293e-06
5.0537e-06
5.0293e-06
5.0537e-06
5.0293e-06
5.0537e-06
5.0537e-06
5.0537e-06
5.0537e-06
5.0537e-06
5.0293e-06
5.0293e-06
5.0293e-06
5.0537e-06
5.0293e-06
5.0293e-06
5.0293e-06
5.0537e-06
5.0293e-06
5.0537e-06
5.0293e-06
5.0293e-06
5.0293e-06
5.0293e-06
5.0293e-06
5.0293e-06
5.0293e-06
5.0293e-06
5.0293e-06
5.0293e-06
5.0293e-06
5.0293e-06
5.0293e-06
5.0293e-06
5.0293e-06
5.0293e-06
5.0293e-06
5.0293e-06
5.0293e-06
5.0293e-06
5.0293e-06
5.0293e-06
5.0293e-06
5.0293e-06
5.0293e-06
5.0293e-06
5.0293e-06
5.0293e-06
5.0293e-06
5.0293e-06
5.0293e-06
5.0293e-06
5.0293e-06
5.0293e-06
5.0293e-06
5.0293e-06
5.0293e-06
5.0293e-06
5.0293e-06
5.0293e-06
5.0293e-06
5.0293e-06
5.0293e-06
5.0293e-06
5.0293e-06
5.0293e-06
5.0049e-06
5.0293e-06
5.0293e-06
5.0293e-06
5.0293e-06
5.0293e-06
5.0293e-06
5.0293e-06
5.0293e-06
5.0293e-06
5.0293e-06
5.0293e-06
5.0293e-06
5.0293e-06
5.0293e-06
5.0049e-06
5.0049e-06
5.0049e-06
5.0049e-06
5.0049e-06
5.0049e-06
5.0049e-06
5.0049e-06
5.0049e-06
5.0049e-06
5.0049e-06
5.0049e-06
5.0049e-06
5.0049e-06
5.0049e-06
5.0049e-06
5.0049e-06
5.0049e-06
5.0049e-06
5.0049e-06
5.0049e-06
5.0049e-06
5.0049e-06
5.0049e-06
5.0049e-06
5.0049e-06
5.0049e-06
5.0049e-06
5.0049e-06
5.0049e-06
5.0049e-06
4.9805e-06
5.0049e-06
5.0049e-06
5.0049e-06
5.0049e-06
5.0049e-06
5.0049e-06
5.0049e-06
5.0049e-06
5.0049e-06
5.0049e-06
5.0049e-06
5.0049e-06
4.9805e-06
5.0049e-06
5.0049e-06
5.0049e-06
5.0049e-06
5.0049e-06
5.0049e-06
4.9805e-06
5.0049e-06
5.0049e-06
5.0049e-06
4.9805e-06
4.9805e-06
4.9805e-06
5.0049e-06
4.9805e-06
4.9805e-06
4.9805e-06
5.0049e-06
4.9805e-06
4.9805e-06
4.9805e-06
4.9805e-06
4.9805e-06
4.9805e-06
4.9805e-06
4.9805e-06
4.9805e-06
4.9805e-06
4.9805e-06
4.9805e-06
4.9805e-06
4.9805e-06
4.9805e-06
4.9805e-06
4.9805e-06
4.9805e-06
4.9805e-06
4.9805e-06
4.9805e-06
4.9805e-06
4.9561e-06
4.9805e-06
4.9805e-06
4.9805e-06
4.9805e-06
4.9805e-06
4.9805e-06
4.9805e-06
4.9805e-06
4.9805e-06
4.9805e-06
4.9805e-06
4.9805e-06
4.9561e-06
4.9561e-06
4.9805e-06
4.9561e-06
4.9805e-06
4.9805e-06
4.9805e-06
4.9561e-06
4.9561e-06
4.9805e-06
4.9805e-06
4.9805e-06
4.9805e-06
4.9561e-06
4.9805e-06
4.9561e-06
4.9805e-06
4.9561e-06
4.9805e-06
4.9561e-06
4.9561e-06
4.9561e-06
4.9561e-06
4.9561e-06
4.9561e-06
4.9561e-06
4.9561e-06
4.9561e-06
4.9561e-06
4.9561e-06
4.9561e-06
4.9561e-06
4.9561e-06
4.9561e-06
4.9561e-06
4.9561e-06
4.9561e-06
4.9561e-06
4.9561e-06
4.9561e-06
4.9561e-06
4.9561e-06
4.9561e-06
4.9561e-06
4.9561e-06
4.9561e-06
4.9561e-06
4.9561e-06
4.9561e-06
4.9316e-06
4.9561e-06
4.9561e-06
4.9561e-06
4.9561e-06
4.9561e-06
4.9316e-06
4.9561e-06
4.9561e-06
4.9561e-06
4.9561e-06
4.9561e-06
4.9561e-06
4.9316e-06
4.9316e-06
4.9561e-06
4.9316e-06
4.9561e-06
4.9316e-06
4.9561e-06
4.9316e-06
4.9316e-06
4.9316e-06
4.9316e-06
4.9316e-06
4.9316e-06
4.9316e-06
4.9561e-06
4.9316e-06
4.9316e-06
4.9316e-06
4.9561e-06
4.9316e-06
4.9316e-06
4.9316e-06
4.9316e-06
4.9316e-06
4.9316e-06
4.9316e-06
4.9316e-06
4.9316e-06
4.9316e-06
4.9316e-06
4.9316e-06
4.9316e-06
4.9316e-06
4.9072e-06
4.9316e-06
4.9316e-06
4.9316e-06
4.9072e-06
4.9316e-06
4.9316e-06
4.9316e-06
4.9316e-06
4.9316e-06
4.9316e-06
4.9316e-06
4.9316e-06
4.9316e-06
4.9316e-06
4.9316e-06
4.9316e-06
4.9072e-06
4.9072e-06
4.9072e-06
4.9072e-06
4.9072e-06
4.9072e-06
4.9072e-06
4.9072e-06
4.9316e-06
4.9072e-06
4.9072e-06
4.9072e-06
4.9072e-06
4.9072e-06
4.9072e-06
4.9072e-06
4.9072e-06
4.9072e-06
4.9072e-06
4.9072e-06
4.9072e-06
4.9072e-06
4.9072e-06
4.9072e-06
4.9072e-06
4.9072e-06
4.9072e-06
4.9072e-06
4.9072e-06
4.9072e-06
4.9072e-06
4.9072e-06
4.9072e-06
4.9072e-06
4.9072e-06
4.9072e-06
4.9072e-06
4.9072e-06
4.9072e-06
4.9072e-06
4.9072e-06
4.9072e-06
4.9072e-06
4.9072e-06
4.9072e-06
4.9072e-06
4.9072e-06
4.8828e-06
4.9072e-06
4.8828e-06
4.9072e-06
4.9072e-06
4.9072e-06
4.9072e-06
4.8828e-06
4.8828e-06
4.9072e-06
4.9072e-06
4.8828e-06
4.8828e-06
4.8828e-06
4.8828e-06
4.8828e-06
4.8828e-06
4.9072e-06
4.8828e-06
4.8828e-06
4.8828e-06
4.8828e-06
4.8828e-06
4.8828e-06
4.8828e-06
4.8828e-06
4.8828e-06
4.8828e-06
4.8828e-06
4.8828e-06
4.8828e-06
4.8828e-06
4.8828e-06
4.8828e-06
4.8828e-06
4.8828e-06
4.8828e-06
4.8828e-06
4.8828e-06
4.8828e-06
4.8828e-06
4.8828e-06
4.8584e-06
4.8584e-06
4.8828e-06
4.8828e-06
4.8828e-06
4.8828e-06
4.8584e-06
4.8828e-06
4.8584e-06
4.8584e-06
4.8828e-06
4.8828e-06
4.8584e-06
4.8828e-06
4.8584e-06
4.8828e-06
4.8828e-06
4.8828e-06
4.8584e-06
4.8584e-06
4.8584e-06
4.8584e-06
4.8584e-06
4.8584e-06
4.8584e-06
4.8584e-06
4.8584e-06
4.8584e-06
4.8584e-06
4.8584e-06
4.8584e-06
4.8584e-06
4.8584e-06
4.8584e-06
4.8584e-06
4.8584e-06
4.8584e-06
4.8584e-06
4.8584e-06
4.8584e-06
4.8584e-06
4.8584e-06
4.8584e-06
4.8584e-06
4.8584e-06
4.8584e-06
4.8584e-06
4.8584e-06
4.8584e-06
4.8584e-06
4.8584e-06
4.8584e-06
4.8584e-06
4.8584e-06
4.8584e-06
4.8584e-06
4.8584e-06
4.8584e-06
4.8584e-06
4.8584e-06
4.8584e-06
4.8584e-06
4.8584e-06
4.8584e-06
4.8584e-06
4.8584e-06
4.834e-06
4.8584e-06
4.834e-06
4.8584e-06
4.8584e-06
4.8584e-06
4.834e-06
4.834e-06
4.834e-06
4.834e-06
4.834e-06
4.834e-06
4.834e-06
4.8584e-06
4.834e-06
4.834e-06
4.834e-06
4.834e-06
4.834e-06
4.834e-06
4.834e-06
4.834e-06
4.834e-06
4.834e-06
4.834e-06
4.834e-06
4.834e-06
4.8096e-06
4.834e-06
4.834e-06
4.834e-06
4.834e-06
4.834e-06
4.834e-06
4.8096e-06
4.834e-06
4.834e-06
4.834e-06
4.834e-06
4.834e-06
4.834e-06
4.834e-06
4.8096e-06
4.8096e-06
4.8096e-06
4.834e-06
4.8096e-06
4.8096e-06
4.8096e-06
4.8096e-06
4.8096e-06
4.8096e-06
4.8096e-06
4.8096e-06
4.8096e-06
4.8096e-06
4.8096e-06
4.8096e-06
4.8096e-06
4.8096e-06
4.8096e-06
4.8096e-06
4.8096e-06
4.8096e-06
4.8096e-06
4.8096e-06
4.7852e-06
4.7852e-06
4.7852e-06
4.8096e-06
4.7852e-06
4.7852e-06
4.7852e-06
4.7852e-06
4.7852e-06
4.7852e-06
4.7852e-06
4.7852e-06
4.7852e-06
4.7852e-06
4.7852e-06
4.7852e-06
4.7852e-06
4.7852e-06
4.7852e-06
4.7852e-06
4.7852e-06
4.7852e-06
4.7852e-06
4.7852e-06
4.7852e-06
4.7607e-06
4.7607e-06
4.7852e-06
4.7852e-06
4.7852e-06
4.7852e-06
4.7852e-06
4.7607e-06
4.7607e-06
4.7607e-06
4.7852e-06
4.7607e-06
4.7607e-06
4.7607e-06
4.7607e-06
4.7607e-06
4.7607e-06
4.7607e-06
4.7607e-06
4.7607e-06
4.7607e-06
4.7607e-06
4.7607e-06
4.7607e-06
4.7607e-06
4.7607e-06
4.7607e-06
4.7607e-06
4.7607e-06
4.7607e-06
4.7607e-06
4.7607e-06
4.7607e-06
4.7607e-06
4.7607e-06
4.7607e-06
4.7363e-06
4.7607e-06
4.7607e-06
4.7363e-06
4.7607e-06
4.7607e-06
4.7363e-06
4.7607e-06
4.7607e-06
4.7607e-06
4.7607e-06
4.7607e-06
4.7363e-06
4.7607e-06
4.7607e-06
4.7363e-06
4.7363e-06
4.7363e-06
4.7363e-06
4.7363e-06
4.7363e-06
4.7363e-06
4.7363e-06
4.7363e-06
4.7363e-06
4.7363e-06
4.7363e-06
4.7119e-06
4.7363e-06
4.7119e-06
4.7363e-06
4.7363e-06
4.7363e-06
4.7363e-06
4.7119e-06
4.7119e-06
4.7119e-06
4.7119e-06
4.7119e-06
4.7119e-06
4.7363e-06
4.7119e-06
4.7119e-06
4.7119e-06
4.7119e-06
4.7119e-06
4.7119e-06
4.7119e-06
4.7119e-06
4.7119e-06
4.7119e-06
4.7119e-06
4.7119e-06
4.7119e-06
4.7119e-06
4.7119e-06
4.7119e-06
4.7119e-06
4.7119e-06
4.7119e-06
4.7119e-06
4.7119e-06
4.7119e-06
4.6875e-06
4.6875e-06
4.7119e-06
4.6875e-06
4.7119e-06
4.6875e-06
4.6875e-06
4.7119e-06
4.6875e-06
4.6875e-06
4.6875e-06
4.6875e-06
4.6875e-06
4.6875e-06
4.6875e-06
4.6875e-06
4.6875e-06
4.6875e-06
4.6875e-06
4.6875e-06
4.6875e-06
4.6875e-06
4.6875e-06
4.6875e-06
4.6631e-06
4.6875e-06
4.6875e-06
4.6875e-06
4.6875e-06
4.6631e-06
4.6875e-06
4.6875e-06
4.6875e-06
4.6875e-06
4.6631e-06
4.6875e-06
4.6631e-06
4.6631e-06
4.6631e-06
4.6631e-06
4.6631e-06
4.6631e-06
4.6631e-06
4.6631e-06
4.6631e-06
4.6631e-06
4.6631e-06
4.6631e-06
4.6631e-06
4.6631e-06
4.6631e-06
4.6631e-06
4.6631e-06
4.6631e-06
4.6631e-06
4.6631e-06
4.6387e-06
4.6631e-06
4.6387e-06
4.6631e-06
4.6387e-06
4.6631e-06
4.6387e-06
4.6387e-06
4.6631e-06
4.6387e-06
4.6387e-06
4.6631e-06
4.6631e-06
4.6387e-06
4.6631e-06
4.6387e-06
4.6387e-06
4.6387e-06
4.6387e-06
4.6631e-06
4.6387e-06
4.6387e-06
4.6387e-06
4.6387e-06
4.6387e-06
4.6387e-06
4.6387e-06
4.6387e-06
4.6387e-06
4.6387e-06
4.6387e-06
4.6387e-06
4.6387e-06
4.6143e-06
4.6143e-06
4.6387e-06
4.6143e-06
4.6387e-06
4.6387e-06
4.6387e-06
4.6387e-06
4.6387e-06
4.6143e-06
4.6387e-06
4.6143e-06
4.6143e-06
4.6143e-06
4.6387e-06
4.6143e-06
4.6143e-06
4.6143e-06
4.6143e-06
4.6143e-06
4.6143e-06
4.6143e-06
4.6143e-06
4.6143e-06
4.6143e-06
4.6143e-06
4.6143e-06
4.6143e-06
4.6143e-06
4.6143e-06
4.6143e-06
4.5898e-06
4.6143e-06
4.5898e-06
4.6143e-06
4.5898e-06
4.5898e-06
4.6143e-06
4.5898e-06
4.5898e-06
4.5898e-06
4.5898e-06
4.5898e-06
4.5898e-06
4.5898e-06
4.5898e-06
4.5898e-06
4.5898e-06
4.5898e-06
4.5898e-06
4.5898e-06
4.5898e-06
4.5898e-06
4.5898e-06
4.5898e-06
4.5898e-06
4.5898e-06
4.5898e-06
4.5898e-06
4.5898e-06
4.5898e-06
4.5898e-06
4.5898e-06
4.5654e-06
4.5898e-06
4.5654e-06
4.5898e-06
4.5898e-06
4.5654e-06
4.5898e-06
4.5898e-06
4.5654e-06
4.5654e-06
4.5654e-06
4.5654e-06
4.5654e-06
4.5654e-06
4.5654e-06
4.5654e-06
4.5654e-06
4.5654e-06
4.5654e-06
4.5654e-06
4.5654e-06
4.5654e-06
4.5654e-06
4.5654e-06
4.5654e-06
4.5654e-06
4.5654e-06
4.5654e-06
4.5654e-06
4.5654e-06
4.5654e-06
4.5654e-06
4.5654e-06
4.5654e-06
4.5654e-06
4.5654e-06
4.5654e-06
4.5654e-06
4.541e-06
4.5654e-06
4.541e-06
4.541e-06
4.541e-06
4.541e-06
4.541e-06
4.541e-06
4.541e-06
4.541e-06
4.541e-06
4.541e-06
4.541e-06
4.541e-06
4.541e-06
4.541e-06
4.5166e-06
4.541e-06
4.541e-06
4.5166e-06
4.541e-06
4.5166e-06
4.5166e-06
4.541e-06
4.5166e-06
4.5166e-06
4.5166e-06
4.5166e-06
4.5166e-06
4.5166e-06
4.5166e-06
4.5166e-06
4.5166e-06
4.5166e-06
4.5166e-06
4.5166e-06
4.5166e-06
4.5166e-06
4.5166e-06
4.5166e-06
4.5166e-06
4.5166e-06
4.5166e-06
4.5166e-06
4.5166e-06
4.5166e-06
4.4922e-06
4.5166e-06
4.4922e-06
4.5166e-06
4.5166e-06
4.5166e-06
4.5166e-06
4.4922e-06
4.5166e-06
4.4922e-06
4.5166e-06
4.5166e-06
4.5166e-06
4.4922e-06
4.4922e-06
4.4922e-06
4.4922e-06
