1.50146e-05
1.50146e-05
1.50146e-05
1.50146e-05
1.50146e-05
1.50391e-05
1.50391e-05
1.50391e-05
1.50391e-05
1.50391e-05
1.50391e-05
1.50635e-05
1.50635e-05
1.50635e-05
1.50635e-05
1.50635e-05
1.50635e-05
1.50879e-05
1.50879e-05
1.50879e-05
1.51123e-05
1.51123e-05
1.51123e-05
1.51123e-05
1.51123e-05
1.51123e-05
1.51123e-05
1.51367e-05
1.51367e-05
1.51367e-05
1.51611e-05
1.51611e-05
1.51611e-05
1.51855e-05
1.51855e-05
1.51855e-05
1.521e-05
1.521e-05
1.521e-05
1.521e-05
1.52344e-05
1.52344e-05
1.52344e-05
1.52344e-05
1.52344e-05
1.52344e-05
1.52344e-05
1.52588e-05
1.52588e-05
1.52588e-05
1.52588e-05
1.52588e-05
1.52832e-05
1.52832e-05
1.52832e-05
1.53076e-05
1.53076e-05
1.53076e-05
1.53076e-05
1.5332e-05
1.5332e-05
1.5332e-05
1.53564e-05
1.53564e-05
1.53809e-05
1.53809e-05
1.53809e-05
1.54053e-05
1.54053e-05
1.54053e-05
1.54297e-05
1.54297e-05
1.54297e-05
1.54297e-05
1.54541e-05
1.54541e-05
1.54541e-05
1.54541e-05
1.54541e-05
1.54785e-05
1.54785e-05
1.55029e-05
1.55029e-05
1.55029e-05
1.55029e-05
1.55273e-05
1.55273e-05
1.55273e-05
1.55518e-05
1.55518e-05
1.55518e-05
1.55762e-05
1.55762e-05
1.55518e-05
1.55518e-05
1.55762e-05
1.55762e-05
1.56006e-05
1.56006e-05
1.56006e-05
1.56006e-05
1.5625e-05
1.5625e-05
1.5625e-05
1.5625e-05
1.56494e-05
1.56494e-05
1.56494e-05
1.56494e-05
1.56494e-05
1.56494e-05
1.56738e-05
1.56738e-05
1.56738e-05
1.56738e-05
1.56738e-05
1.56738e-05
1.56982e-05
1.56982e-05
1.56982e-05
1.56982e-05
1.56982e-05
1.56982e-05
1.56982e-05
1.56982e-05
1.57227e-05
1.57227e-05
1.57227e-05
1.57227e-05
1.57471e-05
1.57471e-05
1.57471e-05
1.57471e-05
1.57471e-05
1.57471e-05
1.57471e-05
1.57471e-05
1.57227e-05
1.57227e-05
1.57227e-05
1.57227e-05
1.57227e-05
1.57227e-05
1.57227e-05
1.57227e-05
1.57227e-05
1.57227e-05
1.57227e-05
1.57227e-05
1.57227e-05
1.57227e-05
1.57227e-05
1.57227e-05
1.57227e-05
1.57471e-05
1.57471e-05
1.57227e-05
1.57471e-05
1.57471e-05
1.57471e-05
1.57227e-05
1.57471e-05
1.57471e-05
1.57471e-05
1.57471e-05
1.57471e-05
1.57227e-05
1.56982e-05
1.56982e-05
1.57227e-05
1.57227e-05
1.57227e-05
1.57227e-05
1.57227e-05
1.57471e-05
1.57227e-05
1.57227e-05
1.57471e-05
1.57471e-05
1.57227e-05
1.57227e-05
1.57227e-05
1.57227e-05
1.57227e-05
1.57227e-05
1.57227e-05
1.57227e-05
1.57227e-05
1.57227e-05
1.57227e-05
1.57227e-05
1.56982e-05
1.56982e-05
1.56982e-05
1.57227e-05
1.57227e-05
1.57227e-05
1.57227e-05
1.57471e-05
1.57227e-05
1.57471e-05
1.57471e-05
1.57715e-05
1.57715e-05
1.57715e-05
1.57715e-05
1.57959e-05
1.57959e-05
1.57959e-05
1.58203e-05
1.58203e-05
1.58203e-05
1.58447e-05
1.58447e-05
1.58936e-05
1.58936e-05
1.58936e-05
1.5918e-05
1.5918e-05
1.59424e-05
1.59424e-05
1.59668e-05
1.59912e-05
1.59912e-05
1.59912e-05
1.60156e-05
1.604e-05
1.604e-05
1.60645e-05
1.60889e-05
1.60889e-05
1.61133e-05
1.61133e-05
1.61377e-05
1.61621e-05
1.61865e-05
1.61865e-05
1.62109e-05
1.62354e-05
1.62354e-05
1.62598e-05
1.62842e-05
1.62842e-05
1.62598e-05
1.62842e-05
1.63086e-05
1.6333e-05
1.63574e-05
1.63574e-05
1.63818e-05
1.63818e-05
1.64062e-05
1.64062e-05
1.64062e-05
1.64307e-05
1.64307e-05
1.64307e-05
1.64551e-05
1.64551e-05
1.64551e-05
1.64795e-05
1.64795e-05
1.64795e-05
1.64795e-05
1.64795e-05
1.64795e-05
1.64795e-05
1.64795e-05
1.64795e-05
1.64795e-05
1.64795e-05
1.64795e-05
1.64795e-05
1.64795e-05
1.64795e-05
1.64795e-05
1.64795e-05
1.64795e-05
1.64795e-05
1.64795e-05
1.64795e-05
1.64795e-05
1.64795e-05
1.64551e-05
1.64551e-05
1.64551e-05
1.64551e-05
1.64307e-05
1.64307e-05
1.64307e-05
1.64062e-05
1.64062e-05
1.63818e-05
1.63818e-05
1.63818e-05
1.63818e-05
1.63574e-05
1.63574e-05
1.63574e-05
1.6333e-05
1.63086e-05
1.63086e-05
1.63086e-05
1.63086e-05
1.62842e-05
1.62842e-05
1.62842e-05
1.62842e-05
1.62842e-05
1.62598e-05
1.62354e-05
1.62109e-05
1.62109e-05
1.62109e-05
1.62109e-05
1.62109e-05
1.62109e-05
1.62109e-05
1.62109e-05
1.61865e-05
1.61865e-05
1.61865e-05
1.61865e-05
1.61621e-05
1.61621e-05
1.61621e-05
1.61377e-05
1.61377e-05
1.61377e-05
1.61377e-05
1.61133e-05
1.61133e-05
1.60889e-05
1.60889e-05
1.60889e-05
1.60889e-05
1.60645e-05
1.60645e-05
1.60645e-05
1.604e-05
1.604e-05
1.604e-05
1.604e-05
1.604e-05
1.604e-05
1.604e-05
1.604e-05
1.604e-05
1.604e-05
1.604e-05
1.604e-05
1.604e-05
1.604e-05
1.604e-05
1.60156e-05
1.60156e-05
1.60156e-05
1.60156e-05
1.60156e-05
1.60156e-05
1.60156e-05
1.60156e-05
1.60156e-05
1.60156e-05
1.60156e-05
1.60156e-05
1.59912e-05
1.59912e-05
1.59912e-05
1.59912e-05
1.59912e-05
1.59912e-05
1.59912e-05
1.59912e-05
1.59912e-05
1.59912e-05
1.59668e-05
1.59668e-05
1.59668e-05
1.59668e-05
1.59668e-05
1.59668e-05
1.59668e-05
1.59668e-05
1.59668e-05
1.59912e-05
1.59668e-05
1.59668e-05
1.59668e-05
1.59668e-05
1.59668e-05
1.59668e-05
1.59668e-05
1.59668e-05
1.59668e-05
1.59668e-05
1.59668e-05
1.59668e-05
1.59668e-05
1.59668e-05
1.59668e-05
1.59668e-05
1.59668e-05
1.59424e-05
1.59424e-05
1.59668e-05
1.59668e-05
1.59424e-05
1.59668e-05
1.59668e-05
1.59668e-05
1.59668e-05
1.59668e-05
1.59668e-05
1.59668e-05
1.59668e-05
1.59668e-05
1.59668e-05
1.59668e-05
1.59668e-05
1.59668e-05
1.59668e-05
1.59668e-05
1.59668e-05
1.59668e-05
1.59668e-05
1.59668e-05
1.59668e-05
1.59668e-05
1.59668e-05
1.59668e-05
1.59668e-05
1.59668e-05
1.59912e-05
1.59668e-05
1.59668e-05
1.59668e-05
1.59912e-05
1.59668e-05
1.59668e-05
1.59424e-05
1.59424e-05
1.59424e-05
1.59668e-05
1.59668e-05
1.59668e-05
1.59668e-05
1.59668e-05
1.59668e-05
1.59668e-05
1.59668e-05
1.59668e-05
1.59668e-05
1.59668e-05
1.59668e-05
1.59668e-05
1.59668e-05
1.59668e-05
1.59668e-05
1.59668e-05
1.59668e-05
1.59668e-05
1.59668e-05
1.59668e-05
1.59668e-05
1.59668e-05
1.59424e-05
1.59424e-05
1.59424e-05
1.59668e-05
1.59668e-05
1.59668e-05
1.59668e-05
1.59668e-05
1.59668e-05
1.59668e-05
1.59668e-05
1.59912e-05
1.59668e-05
1.59668e-05
1.59668e-05
1.59912e-05
1.59912e-05
1.59668e-05
1.59668e-05
1.59912e-05
1.59912e-05
1.59668e-05
1.59668e-05
1.59668e-05
1.59912e-05
1.59668e-05
1.59668e-05
1.59912e-05
1.59912e-05
1.59668e-05
1.59668e-05
1.59912e-05
1.59668e-05
1.59668e-05
1.59912e-05
1.59912e-05
1.59668e-05
1.59668e-05
1.59424e-05
1.59668e-05
1.59668e-05
1.59668e-05
1.59668e-05
1.59668e-05
1.59668e-05
1.59668e-05
1.59668e-05
1.59912e-05
1.59912e-05
1.59912e-05
1.59668e-05
1.59912e-05
1.59668e-05
1.59912e-05
1.59668e-05
1.59912e-05
1.59668e-05
1.59668e-05
1.59668e-05
1.59668e-05
1.59668e-05
1.59668e-05
1.59668e-05
1.59668e-05
1.59668e-05
1.59668e-05
1.59424e-05
1.59424e-05
1.59668e-05
1.59668e-05
1.59668e-05
1.59668e-05
1.59668e-05
1.59424e-05
1.59668e-05
1.59424e-05
1.59668e-05
1.59668e-05
1.59668e-05
1.59668e-05
1.59668e-05
1.59668e-05
1.59668e-05
1.59668e-05
1.59668e-05
1.59668e-05
1.59668e-05
1.59424e-05
1.59668e-05
1.59424e-05
1.59424e-05
1.59424e-05
1.59668e-05
1.59668e-05
1.59668e-05
1.59668e-05
1.59668e-05
1.59668e-05
1.59668e-05
1.59668e-05
1.59668e-05
1.59424e-05
1.59424e-05
1.59668e-05
1.59668e-05
1.59668e-05
1.59668e-05
1.59668e-05
1.59668e-05
1.59912e-05
1.59912e-05
1.59912e-05
1.59912e-05
1.59912e-05
1.59912e-05
1.59912e-05
1.60156e-05
1.60156e-05
1.60156e-05
1.60156e-05
1.60156e-05
1.60156e-05
1.60156e-05
1.604e-05
1.604e-05
1.604e-05
1.604e-05
1.60645e-05
1.60889e-05
1.60889e-05
1.60889e-05
1.61133e-05
1.61133e-05
1.61377e-05
1.61621e-05
1.61621e-05
1.61865e-05
1.62109e-05
1.62109e-05
1.62354e-05
1.62598e-05
1.62842e-05
1.63086e-05
1.63086e-05
1.6333e-05
1.63574e-05
1.63818e-05
1.63818e-05
1.64062e-05
1.64307e-05
1.64795e-05
1.65039e-05
1.65039e-05
1.65283e-05
1.65527e-05
1.65771e-05
1.66016e-05
1.6626e-05
1.66504e-05
1.66748e-05
1.66992e-05
1.67236e-05
1.6748e-05
1.6748e-05
1.67725e-05
1.67969e-05
1.68213e-05
1.68701e-05
1.68945e-05
1.68945e-05
1.69189e-05
1.69434e-05
1.69678e-05
1.69922e-05
1.69922e-05
1.70166e-05
1.70166e-05
1.7041e-05
1.70654e-05
1.70654e-05
1.70898e-05
1.71143e-05
1.71143e-05
1.71387e-05
1.71387e-05
1.71631e-05
1.71631e-05
1.71631e-05
1.71875e-05
1.71875e-05
1.71875e-05
1.71875e-05
1.72119e-05
1.72363e-05
1.72363e-05
1.72607e-05
1.72607e-05
1.72607e-05
1.72852e-05
1.72852e-05
1.72852e-05
1.72852e-05
1.72852e-05
1.73096e-05
1.73096e-05
1.73096e-05
1.73096e-05
1.73096e-05
1.73096e-05
1.7334e-05
1.73096e-05
1.73096e-05
1.7334e-05
1.7334e-05
1.7334e-05
1.7334e-05
1.7334e-05
1.7334e-05
1.7334e-05
1.7334e-05
1.7334e-05
1.7334e-05
1.7334e-05
1.7334e-05
1.7334e-05
1.73096e-05
1.72852e-05
1.72852e-05
1.73096e-05
1.72852e-05
1.72852e-05
1.73096e-05
1.72852e-05
1.73096e-05
1.73096e-05
1.73096e-05
1.72852e-05
1.72852e-05
1.72852e-05
1.72852e-05
1.72607e-05
1.72607e-05
1.72607e-05
1.72607e-05
1.72607e-05
1.72363e-05
1.72119e-05
1.72363e-05
1.72119e-05
1.72119e-05
1.72119e-05
1.72119e-05
1.71875e-05
1.71875e-05
1.71875e-05
1.71875e-05
1.71631e-05
1.71631e-05
1.71631e-05
1.71631e-05
1.71631e-05
1.71387e-05
1.71387e-05
1.71387e-05
1.71387e-05
1.71387e-05
1.71387e-05
1.71387e-05
1.71143e-05
1.71143e-05
1.71143e-05
1.71387e-05
1.71143e-05
1.71143e-05
1.71143e-05
1.71143e-05
1.71387e-05
1.71143e-05
1.71143e-05
1.71387e-05
1.71387e-05
1.71387e-05
1.71387e-05
1.71387e-05
1.71631e-05
1.71387e-05
1.71631e-05
1.71631e-05
1.71387e-05
1.71387e-05
1.71631e-05
1.71875e-05
1.71875e-05
1.71875e-05
1.71875e-05
1.72119e-05
1.72119e-05
1.72363e-05
1.72363e-05
1.72363e-05
1.72607e-05
1.72607e-05
1.72607e-05
1.72607e-05
1.72607e-05
1.72852e-05
1.72607e-05
1.72852e-05
1.72852e-05
1.72607e-05
1.72852e-05
1.72852e-05
1.72607e-05
1.72607e-05
1.72607e-05
1.72607e-05
1.72607e-05
1.72607e-05
1.72607e-05
1.72607e-05
1.72363e-05
1.72363e-05
1.72363e-05
1.72363e-05
1.72119e-05
1.72119e-05
1.71875e-05
1.71875e-05
1.71631e-05
1.71387e-05
1.71387e-05
1.71387e-05
1.71143e-05
1.70898e-05
1.70654e-05
1.70654e-05
1.7041e-05
1.70166e-05
1.69922e-05
1.69922e-05
1.69678e-05
1.69434e-05
1.69189e-05
1.68945e-05
1.68701e-05
1.68457e-05
1.68213e-05
1.68213e-05
1.67969e-05
1.67725e-05
1.6748e-05
1.67236e-05
1.66992e-05
1.66748e-05
1.66748e-05
1.66504e-05
1.6626e-05
1.65771e-05
1.65527e-05
1.65527e-05
1.65283e-05
1.65039e-05
1.65039e-05
1.64795e-05
1.64795e-05
1.64551e-05
1.64551e-05
1.64062e-05
1.64062e-05
1.63818e-05
1.63818e-05
1.63818e-05
1.63574e-05
1.6333e-05
1.6333e-05
1.63086e-05
1.63086e-05
1.63086e-05
1.63086e-05
1.62842e-05
1.62842e-05
1.62598e-05
1.62598e-05
1.62354e-05
1.62354e-05
1.62109e-05
1.62109e-05
1.62109e-05
1.62109e-05
1.61865e-05
1.62109e-05
1.61865e-05
1.61865e-05
1.61621e-05
1.61865e-05
1.61865e-05
1.61621e-05
1.61377e-05
1.61377e-05
1.61377e-05
1.61377e-05
1.61377e-05
1.61377e-05
1.61133e-05
1.61133e-05
1.61133e-05
1.61377e-05
1.61133e-05
1.61133e-05
1.61377e-05
1.61377e-05
1.61377e-05
1.61133e-05
1.61133e-05
1.61377e-05
1.61133e-05
1.61133e-05
1.61133e-05
1.61377e-05
1.61133e-05
1.61133e-05
1.61133e-05
1.61377e-05
1.61133e-05
1.61133e-05
1.61133e-05
1.61377e-05
1.61133e-05
1.61133e-05
1.61133e-05
1.61377e-05
1.61377e-05
1.61133e-05
1.60889e-05
1.61133e-05
1.61133e-05
1.61133e-05
1.61133e-05
1.61377e-05
1.61133e-05
1.61377e-05
1.61377e-05
1.61377e-05
1.61377e-05
1.61377e-05
1.61377e-05
1.61621e-05
1.61621e-05
1.61621e-05
1.61621e-05
1.61621e-05
1.61621e-05
1.61621e-05
1.61621e-05
1.61865e-05
1.61865e-05
1.61865e-05
1.61865e-05
1.61865e-05
1.61865e-05
1.61865e-05
1.61865e-05
1.62109e-05
1.62109e-05
1.62109e-05
1.62109e-05
1.62354e-05
1.62354e-05
1.62354e-05
1.62354e-05
1.62598e-05
1.62598e-05
1.62598e-05
1.62598e-05
1.62842e-05
1.62842e-05
1.62842e-05
1.62842e-05
1.63086e-05
1.63086e-05
1.63086e-05
1.63086e-05
1.6333e-05
1.6333e-05
1.6333e-05
1.6333e-05
1.6333e-05
1.63574e-05
1.63574e-05
1.63574e-05
1.63574e-05
1.63818e-05
1.63818e-05
1.63818e-05
1.63818e-05
1.64062e-05
1.64062e-05
1.64062e-05
1.64062e-05
1.64307e-05
1.64307e-05
1.64307e-05
1.64307e-05
1.64307e-05
1.64307e-05
1.64307e-05
1.64551e-05
1.64795e-05
1.64795e-05
1.64795e-05
1.65039e-05
1.65283e-05
1.65039e-05
1.65283e-05
1.65283e-05
1.65527e-05
1.65527e-05
1.65527e-05
1.65527e-05
1.65527e-05
1.65527e-05
1.65527e-05
1.65771e-05
1.65771e-05
1.65771e-05
1.65771e-05
1.65771e-05
1.66016e-05
1.65771e-05
1.65771e-05
1.66016e-05
1.66016e-05
1.66016e-05
1.66016e-05
1.6626e-05
1.6626e-05
1.6626e-05
1.6626e-05
1.6626e-05
1.66504e-05
1.66748e-05
1.66504e-05
1.66504e-05
1.66504e-05
1.66748e-05
1.66748e-05
1.66748e-05
1.66748e-05
1.66992e-05
1.66992e-05
1.66748e-05
1.66992e-05
1.66992e-05
1.66992e-05
1.66992e-05
1.66992e-05
1.67236e-05
1.66992e-05
1.66992e-05
1.66992e-05
1.67236e-05
1.66992e-05
1.67236e-05
1.67236e-05
1.6748e-05
1.67236e-05
1.67236e-05
1.6748e-05
1.6748e-05
1.67236e-05
1.67236e-05
1.67236e-05
1.6748e-05
1.6748e-05
1.6748e-05
1.6748e-05
1.67725e-05
1.67725e-05
1.67725e-05
1.67725e-05
1.67969e-05
1.67725e-05
1.67725e-05
1.67725e-05
1.67969e-05
1.67969e-05
1.67969e-05
1.67969e-05
1.67969e-05
1.67969e-05
1.67969e-05
1.67969e-05
1.68213e-05
1.67969e-05
1.67969e-05
1.67969e-05
1.68213e-05
1.67969e-05
1.67969e-05
1.68213e-05
1.68213e-05
1.68213e-05
1.68213e-05
1.68213e-05
1.68457e-05
1.68457e-05
1.68457e-05
1.68457e-05
1.68701e-05
1.68701e-05
1.68701e-05
1.68701e-05
1.68945e-05
1.68945e-05
1.68945e-05
1.68945e-05
1.68945e-05
1.68945e-05
1.69189e-05
1.69189e-05
1.69189e-05
1.69189e-05
1.69434e-05
1.69189e-05
1.69434e-05
1.69434e-05
1.69434e-05
1.69434e-05
1.69678e-05
1.69678e-05
1.69922e-05
1.69922e-05
1.69922e-05
1.69922e-05
1.70166e-05
1.69922e-05
1.69922e-05
1.70166e-05
1.7041e-05
1.7041e-05
1.70654e-05
1.70654e-05
1.70898e-05
1.70898e-05
1.71143e-05
1.71143e-05
1.71631e-05
1.71387e-05
1.71631e-05
1.71631e-05
1.71875e-05
1.71875e-05
1.72119e-05
1.72363e-05
1.72607e-05
1.72607e-05
1.72607e-05
1.72852e-05
1.72852e-05
1.73096e-05
1.73096e-05
1.7334e-05
1.73584e-05
1.73584e-05
1.73584e-05
1.73828e-05
1.74072e-05
1.74072e-05
1.74316e-05
1.74561e-05
1.74805e-05
1.74805e-05
1.75049e-05
1.75293e-05
1.75293e-05
1.75537e-05
1.75537e-05
1.75537e-05
1.76025e-05
1.76025e-05
1.76025e-05
1.7627e-05
1.76514e-05
1.76514e-05
1.76514e-05
1.76758e-05
1.77002e-05
1.77002e-05
1.77246e-05
1.77246e-05
1.7749e-05
1.7749e-05
1.7749e-05
1.77734e-05
1.77979e-05
1.77979e-05
1.77979e-05
1.77979e-05
1.78223e-05
1.78223e-05
1.78223e-05
1.78467e-05
1.78711e-05
1.78711e-05
1.78711e-05
1.78711e-05
1.78955e-05
1.78955e-05
1.79199e-05
1.79199e-05
1.79443e-05
1.79199e-05
1.79443e-05
1.79443e-05
1.79687e-05
1.79443e-05
1.79687e-05
1.79687e-05
1.79687e-05
1.79687e-05
1.79687e-05
1.79687e-05
1.79932e-05
1.79687e-05
1.79932e-05
1.79932e-05
1.80176e-05
1.79932e-05
1.80176e-05
1.80176e-05
1.8042e-05
1.80176e-05
1.80176e-05
1.80176e-05
1.8042e-05
1.8042e-05
1.8042e-05
1.8042e-05
1.80664e-05
1.8042e-05
1.80664e-05
1.80664e-05
1.80664e-05
1.80664e-05
1.80664e-05
1.80664e-05
1.80664e-05
1.80664e-05
1.80664e-05
1.80664e-05
1.80664e-05
1.80908e-05
1.80664e-05
1.80664e-05
1.80664e-05
1.80908e-05
1.80908e-05
1.80664e-05
1.8042e-05
1.8042e-05
1.8042e-05
1.8042e-05
1.80664e-05
1.80664e-05
1.80664e-05
1.8042e-05
1.8042e-05
1.80664e-05
1.80664e-05
1.8042e-05
1.8042e-05
1.80664e-05
1.8042e-05
1.8042e-05
1.8042e-05
1.8042e-05
1.80176e-05
1.8042e-05
1.8042e-05
1.8042e-05
1.80176e-05
1.80176e-05
1.80176e-05
1.80176e-05
1.79932e-05
1.79932e-05
1.79932e-05
1.79932e-05
1.79932e-05
1.79932e-05
1.79932e-05
1.79932e-05
1.79687e-05
1.79687e-05
1.79687e-05
1.79932e-05
1.79687e-05
1.79687e-05
1.79687e-05
1.79687e-05
1.79687e-05
1.79687e-05
1.79687e-05
1.79687e-05
1.79687e-05
1.79443e-05
1.79443e-05
1.79687e-05
1.79443e-05
1.79443e-05
1.79199e-05
1.79443e-05
1.79199e-05
1.79199e-05
1.79199e-05
1.79443e-05
1.79199e-05
1.79199e-05
1.79199e-05
1.78955e-05
1.78955e-05
1.78711e-05
1.78955e-05
1.79199e-05
1.78955e-05
1.78955e-05
1.78955e-05
1.79199e-05
1.79199e-05
1.79199e-05
1.79199e-05
1.79199e-05
1.79199e-05
1.79199e-05
1.79199e-05
1.79443e-05
1.79199e-05
1.79199e-05
1.79199e-05
1.79443e-05
1.79199e-05
1.79199e-05
1.79199e-05
1.79199e-05
1.79199e-05
1.78955e-05
1.78955e-05
1.79199e-05
1.79199e-05
1.78955e-05
1.78955e-05
1.78955e-05
1.78955e-05
1.78711e-05
1.78711e-05
1.78955e-05
1.78955e-05
1.78711e-05
1.78955e-05
1.78955e-05
1.78955e-05
1.78711e-05
1.78955e-05
1.78955e-05
1.78955e-05
1.78711e-05
1.78711e-05
1.78955e-05
1.78711e-05
1.78711e-05
1.78711e-05
1.78955e-05
1.78711e-05
1.78711e-05
1.78955e-05
1.78955e-05
1.78955e-05
1.78711e-05
1.78955e-05
1.78467e-05
1.78467e-05
1.78467e-05
1.78711e-05
1.78467e-05
1.78467e-05
1.78467e-05
1.78467e-05
1.78223e-05
1.78223e-05
1.78223e-05
1.78223e-05
1.77734e-05
1.77734e-05
1.77734e-05
1.77734e-05
1.7749e-05
1.7749e-05
1.77246e-05
1.77246e-05
1.77246e-05
1.77002e-05
1.76758e-05
1.76758e-05
1.76514e-05
1.76514e-05
1.7627e-05
1.76514e-05
1.7627e-05
1.76025e-05
1.76025e-05
1.7627e-05
1.76025e-05
1.76025e-05
1.76025e-05
1.7627e-05
1.76025e-05
1.7627e-05
1.76025e-05
1.7627e-05
1.7627e-05
1.76025e-05
1.7627e-05
1.76514e-05
1.7627e-05
1.7627e-05
1.7627e-05
1.7627e-05
1.76025e-05
1.7627e-05
1.76025e-05
1.7627e-05
1.76025e-05
1.76025e-05
1.76025e-05
1.7627e-05
1.76025e-05
1.7627e-05
1.76025e-05
1.76025e-05
1.75781e-05
1.76025e-05
1.76025e-05
1.76025e-05
1.76025e-05
1.7627e-05
1.76025e-05
1.76025e-05
1.76025e-05
1.7627e-05
1.7627e-05
1.7627e-05
1.7627e-05
1.7627e-05
1.76025e-05
1.76025e-05
1.76025e-05
1.7627e-05
1.76025e-05
1.76025e-05
1.76025e-05
1.7627e-05
1.76025e-05
1.76025e-05
1.76025e-05
1.76025e-05
1.76025e-05
1.75781e-05
1.75781e-05
1.76025e-05
1.76025e-05
1.76025e-05
1.76025e-05
1.76025e-05
1.76025e-05
1.76025e-05
1.75781e-05
1.76025e-05
1.75781e-05
1.75781e-05
1.75781e-05
1.76025e-05
1.75781e-05
1.75781e-05
1.75781e-05
1.76025e-05
1.75781e-05
1.75781e-05
1.75781e-05
1.76025e-05
1.75537e-05
1.75781e-05
1.75781e-05
1.75781e-05
1.75781e-05
1.75781e-05
1.75781e-05
1.76025e-05
1.75537e-05
1.75537e-05
1.75537e-05
1.75781e-05
1.75537e-05
1.75537e-05
1.75781e-05
1.75781e-05
1.75537e-05
1.75781e-05
1.75781e-05
1.75781e-05
1.75781e-05
1.75781e-05
1.76025e-05
1.75781e-05
1.75781e-05
1.75781e-05
1.75781e-05
1.75781e-05
1.75781e-05
1.75781e-05
1.76025e-05
1.75781e-05
1.75781e-05
1.75781e-05
1.75781e-05
1.75781e-05
1.75781e-05
1.75781e-05
1.76025e-05
1.75781e-05
1.75781e-05
1.76025e-05
1.76025e-05
1.76025e-05
1.76025e-05
1.76025e-05
1.76025e-05
1.75781e-05
1.76025e-05
1.76025e-05
1.76025e-05
1.76025e-05
1.76025e-05
1.76025e-05
1.76025e-05
1.76025e-05
1.75781e-05
1.76025e-05
1.76025e-05
1.76025e-05
1.76025e-05
1.76025e-05
1.7627e-05
1.76025e-05
1.76025e-05
1.76025e-05
1.7627e-05
1.76025e-05
1.75781e-05
1.75781e-05
1.76025e-05
1.76025e-05
1.76025e-05
1.76025e-05
1.7627e-05
1.76025e-05
1.76025e-05
1.76025e-05
1.7627e-05
1.7627e-05
1.76025e-05
1.76025e-05
1.7627e-05
1.76025e-05
1.76025e-05
1.76025e-05
1.7627e-05
1.76025e-05
1.76025e-05
1.76025e-05
1.7627e-05
1.76025e-05
1.76025e-05
1.76025e-05
1.76025e-05
1.76025e-05
1.75781e-05
1.76025e-05
1.76025e-05
1.76025e-05
1.76025e-05
1.76025e-05
1.76025e-05
1.76025e-05
1.75781e-05
1.76025e-05
1.76025e-05
1.75781e-05
1.75781e-05
1.75781e-05
1.76025e-05
1.75781e-05
1.75781e-05
1.75781e-05
1.75781e-05
1.75781e-05
1.75781e-05
1.75781e-05
1.75781e-05
1.75537e-05
1.75537e-05
1.75537e-05
1.75781e-05
1.75537e-05
1.75537e-05
1.75537e-05
1.75537e-05
1.75537e-05
1.75537e-05
1.75537e-05
1.75537e-05
1.75049e-05
1.75293e-05
1.75293e-05
1.75293e-05
1.75293e-05
1.75293e-05
1.75293e-05
1.75537e-05
1.75293e-05
1.75293e-05
1.75293e-05
1.75293e-05
1.75537e-05
1.75293e-05
1.75293e-05
1.75293e-05
1.75293e-05
1.75293e-05
1.75049e-05
1.75293e-05
1.75049e-05
1.75049e-05
1.75049e-05
1.75293e-05
1.75049e-05
1.75049e-05
1.75049e-05
1.75049e-05
1.75049e-05
1.75049e-05
1.75049e-05
1.75293e-05
1.75049e-05
1.75049e-05
1.75049e-05
1.75293e-05
1.75293e-05
1.75049e-05
1.75293e-05
1.75293e-05
1.75293e-05
1.75293e-05
1.75293e-05
1.75537e-05
1.75537e-05
1.75537e-05
1.75537e-05
1.75537e-05
1.75537e-05
1.75537e-05
1.75537e-05
1.75781e-05
1.75537e-05
1.75781e-05
1.75781e-05
1.76025e-05
1.76025e-05
1.76025e-05
1.76025e-05
1.7627e-05
1.7627e-05
1.76025e-05
1.76025e-05
1.7627e-05
1.7627e-05
1.76514e-05
1.76758e-05
1.77002e-05
1.77002e-05
1.77002e-05
1.77002e-05
1.77246e-05
1.77246e-05
1.7749e-05
1.7749e-05
1.77734e-05
1.77734e-05
1.77734e-05
1.77734e-05
1.77979e-05
1.77734e-05
1.77979e-05
1.77979e-05
1.78223e-05
1.78223e-05
1.78223e-05
1.78223e-05
1.78467e-05
1.78467e-05
1.78467e-05
1.78467e-05
1.78711e-05
1.78711e-05
1.78711e-05
1.78711e-05
1.78711e-05
1.78711e-05
1.78711e-05
1.78711e-05
1.78955e-05
1.78955e-05
1.78955e-05
1.78955e-05
1.78955e-05
1.78955e-05
1.78711e-05
1.78711e-05
1.78955e-05
1.78711e-05
1.78711e-05
1.78711e-05
1.78711e-05
1.78711e-05
1.78711e-05
1.78711e-05
1.78711e-05
1.78467e-05
1.78467e-05
1.78467e-05
1.78711e-05
1.78467e-05
1.78467e-05
1.78467e-05
1.78467e-05
1.77979e-05
1.77734e-05
1.77979e-05
1.77979e-05
1.77734e-05
1.77734e-05
1.77734e-05
1.77734e-05
1.77734e-05
1.7749e-05
1.77734e-05
1.7749e-05
1.7749e-05
1.77246e-05
1.7749e-05
1.77246e-05
1.77002e-05
1.77002e-05
1.77002e-05
1.76758e-05
1.76758e-05
1.76514e-05
1.76514e-05
1.76514e-05
1.7627e-05
1.76025e-05
1.76025e-05
1.75781e-05
1.75781e-05
1.75781e-05
1.75781e-05
1.75537e-05
1.75537e-05
1.75537e-05
1.75537e-05
1.75293e-05
1.75293e-05
1.75293e-05
1.75293e-05
1.75049e-05
1.75049e-05
1.74805e-05
1.74805e-05
1.74561e-05
1.74561e-05
1.74561e-05
1.74561e-05
1.74316e-05
1.74316e-05
1.74072e-05
1.74316e-05
1.74072e-05
1.74072e-05
1.73828e-05
1.73828e-05
1.73584e-05
1.73584e-05
1.73584e-05
1.73584e-05
1.7334e-05
1.7334e-05
1.7334e-05
1.7334e-05
1.7334e-05
1.73096e-05
1.73096e-05
1.72852e-05
1.72607e-05
1.72607e-05
1.72363e-05
1.72607e-05
1.72363e-05
1.72363e-05
1.72363e-05
1.72363e-05
1.72119e-05
1.72119e-05
1.72119e-05
1.72119e-05
1.72119e-05
1.71875e-05
1.71875e-05
1.72119e-05
1.71875e-05
1.71875e-05
1.71875e-05
1.71875e-05
1.71631e-05
1.71631e-05
1.71631e-05
1.71631e-05
1.71387e-05
1.71387e-05
1.71387e-05
1.71143e-05
1.71143e-05
1.71387e-05
1.71143e-05
1.71143e-05
1.71143e-05
1.71143e-05
1.70898e-05
1.70898e-05
1.70898e-05
1.70898e-05
1.70898e-05
1.70898e-05
1.70898e-05
1.70898e-05
1.70898e-05
1.70654e-05
1.70898e-05
1.70898e-05
1.70654e-05
1.70654e-05
1.70654e-05
1.70898e-05
1.70654e-05
1.70654e-05
1.70654e-05
1.70898e-05
1.7041e-05
1.70654e-05
1.70654e-05
1.70654e-05
1.7041e-05
1.7041e-05
1.70654e-05
1.7041e-05
1.7041e-05
1.7041e-05
1.7041e-05
1.7041e-05
1.7041e-05
1.7041e-05
1.7041e-05
1.70166e-05
1.69922e-05
1.69922e-05
1.70166e-05
1.70166e-05
1.70166e-05
1.70166e-05
1.70166e-05
1.70166e-05
1.70166e-05
1.70166e-05
1.70166e-05
1.70166e-05
1.70166e-05
1.70166e-05
1.70166e-05
1.70166e-05
1.70166e-05
1.70166e-05
1.69922e-05
1.70166e-05
1.69922e-05
1.70166e-05
1.70166e-05
1.69922e-05
1.69922e-05
1.70166e-05
1.69922e-05
1.69922e-05
1.69922e-05
1.70166e-05
1.69922e-05
1.70166e-05
1.70166e-05
1.70166e-05
1.70166e-05
1.69922e-05
1.70166e-05
1.70166e-05
1.69922e-05
1.69922e-05
1.69922e-05
1.70166e-05
1.69922e-05
1.69922e-05
1.69922e-05
1.70166e-05
1.69922e-05
1.69922e-05
1.69922e-05
1.69922e-05
1.69922e-05
1.69922e-05
1.69922e-05
1.69922e-05
1.69922e-05
1.69922e-05
1.69922e-05
1.69922e-05
1.69922e-05
1.69922e-05
1.69922e-05
1.69922e-05
1.69922e-05
1.69922e-05
1.69678e-05
1.69922e-05
1.69678e-05
1.69678e-05
1.69678e-05
1.69922e-05
1.69678e-05
1.69678e-05
1.69678e-05
1.69922e-05
1.69678e-05
1.69678e-05
1.69678e-05
1.69922e-05
1.69922e-05
1.69678e-05
1.69678e-05
1.69922e-05
1.69922e-05
1.69678e-05
1.69678e-05
1.69922e-05
1.69678e-05
1.69678e-05
1.69678e-05
1.69678e-05
1.69678e-05
1.69678e-05
1.69678e-05
1.69678e-05
1.69678e-05
1.69678e-05
1.69678e-05
1.69678e-05
1.69678e-05
1.69678e-05
1.69678e-05
1.69922e-05
1.69678e-05
1.69678e-05
1.69678e-05
1.69922e-05
1.69678e-05
1.69678e-05
1.69678e-05
1.69922e-05
1.69678e-05
1.69678e-05
1.69678e-05
1.69678e-05
1.69678e-05
1.69678e-05
1.69678e-05
1.69678e-05
1.69678e-05
1.69678e-05
1.69678e-05
1.69922e-05
1.69678e-05
1.69678e-05
1.69678e-05
1.69678e-05
1.69678e-05
1.69678e-05
1.69678e-05
1.69678e-05
1.69434e-05
1.69434e-05
1.69434e-05
1.69434e-05
1.69678e-05
1.69434e-05
1.69678e-05
1.69678e-05
1.69678e-05
1.69678e-05
1.69678e-05
1.69678e-05
1.69678e-05
1.69678e-05
1.69678e-05
1.69678e-05
1.69678e-05
1.69678e-05
1.69678e-05
1.69434e-05
1.69678e-05
1.69678e-05
1.69434e-05
1.69434e-05
1.69678e-05
1.69434e-05
1.69434e-05
1.69434e-05
1.69434e-05
1.69434e-05
1.69434e-05
1.69434e-05
1.69678e-05
1.69434e-05
1.69434e-05
1.69434e-05
1.69678e-05
1.69434e-05
1.69434e-05
1.69434e-05
1.69434e-05
1.69434e-05
1.69434e-05
1.69434e-05
1.69434e-05
1.69434e-05
1.69434e-05
1.69434e-05
1.69434e-05
1.69434e-05
1.69434e-05
1.69434e-05
1.69434e-05
1.69434e-05
1.69434e-05
1.69434e-05
1.69434e-05
1.69189e-05
1.69434e-05
1.69189e-05
1.69434e-05
1.69189e-05
1.69189e-05
1.69189e-05
1.69434e-05
1.69434e-05
1.69189e-05
1.68945e-05
1.69189e-05
1.68945e-05
1.68945e-05
1.68945e-05
1.69434e-05
1.69189e-05
1.69189e-05
1.69189e-05
1.69434e-05
1.69189e-05
1.69189e-05
1.69189e-05
1.69189e-05
1.69189e-05
1.69189e-05
1.69189e-05
1.69189e-05
1.69189e-05
1.69189e-05
1.68945e-05
1.69189e-05
1.68945e-05
1.68945e-05
1.68945e-05
1.68945e-05
1.68945e-05
1.68945e-05
1.68945e-05
1.68945e-05
1.68945e-05
1.68701e-05
1.68701e-05
1.68945e-05
1.68945e-05
1.68701e-05
1.68945e-05
1.68945e-05
1.68945e-05
1.68701e-05
1.68701e-05
1.68945e-05
1.68701e-05
1.68701e-05
1.68701e-05
1.68945e-05
1.68701e-05
1.68701e-05
1.68701e-05
1.68945e-05
1.68945e-05
1.68701e-05
1.68701e-05
1.68701e-05
1.68945e-05
1.68701e-05
1.68701e-05
1.68701e-05
1.68701e-05
1.68701e-05
1.68701e-05
1.68701e-05
1.68701e-05
1.68701e-05
1.68701e-05
1.68701e-05
1.68457e-05
1.68457e-05
1.68213e-05
1.68457e-05
1.68457e-05
1.68457e-05
1.68457e-05
1.68457e-05
1.68457e-05
1.68457e-05
1.68457e-05
1.68701e-05
1.68457e-05
1.68457e-05
1.68457e-05
1.68457e-05
1.68457e-05
1.68457e-05
1.68457e-05
1.68457e-05
1.68457e-05
1.68457e-05
1.68457e-05
1.68457e-05
1.68457e-05
1.68213e-05
1.68213e-05
1.68457e-05
1.68213e-05
1.68213e-05
1.68213e-05
1.68213e-05
1.68213e-05
1.68213e-05
1.68213e-05
1.68213e-05
1.68213e-05
1.68213e-05
1.68213e-05
1.68213e-05
1.68213e-05
1.68213e-05
1.68213e-05
1.68213e-05
1.68213e-05
1.68213e-05
1.68213e-05
1.68457e-05
1.68213e-05
1.68213e-05
1.68213e-05
1.68213e-05
1.68213e-05
1.68213e-05
1.68213e-05
1.68213e-05
1.67969e-05
1.67969e-05
1.67969e-05
1.68213e-05
1.67969e-05
1.67969e-05
1.67969e-05
1.68213e-05
1.67969e-05
1.67725e-05
1.67725e-05
1.67725e-05
1.67725e-05
1.67725e-05
1.67725e-05
1.67969e-05
1.67969e-05
1.67969e-05
1.67969e-05
1.67969e-05
1.67969e-05
1.67969e-05
1.67725e-05
1.67969e-05
1.67725e-05
1.67725e-05
1.67725e-05
1.67725e-05
1.67725e-05
1.67725e-05
1.67725e-05
1.67725e-05
1.67725e-05
1.6748e-05
1.6748e-05
1.67725e-05
1.6748e-05
1.6748e-05
1.6748e-05
1.6748e-05
1.67725e-05
1.67725e-05
1.6748e-05
1.6748e-05
1.67725e-05
1.6748e-05
1.6748e-05
1.6748e-05
1.67725e-05
1.6748e-05
1.6748e-05
1.6748e-05
1.67725e-05
1.6748e-05
1.6748e-05
1.6748e-05
1.6748e-05
1.6748e-05
1.6748e-05
1.6748e-05
1.6748e-05
1.6748e-05
1.6748e-05
1.6748e-05
1.6748e-05
1.6748e-05
1.6748e-05
1.6748e-05
1.6748e-05
1.67236e-05
1.6748e-05
1.6748e-05
1.67236e-05
1.66992e-05
1.66992e-05
1.67236e-05
1.67236e-05
1.67236e-05
1.67236e-05
1.67236e-05
1.67236e-05
1.67236e-05
1.67236e-05
1.67236e-05
1.67236e-05
1.67236e-05
1.6748e-05
1.67236e-05
1.67236e-05
1.67236e-05
1.6748e-05
1.67236e-05
1.67236e-05
1.66992e-05
1.67236e-05
1.67236e-05
1.67236e-05
1.66992e-05
1.67236e-05
1.66992e-05
1.66992e-05
1.66992e-05
1.67236e-05
1.67236e-05
1.66992e-05
1.67236e-05
1.67236e-05
1.67236e-05
1.67236e-05
1.67236e-05
1.67236e-05
1.67236e-05
1.67236e-05
1.67236e-05
1.6748e-05
1.67236e-05
1.67236e-05
1.67236e-05
1.6748e-05
1.67236e-05
1.67236e-05
1.67236e-05
1.67236e-05
1.67236e-05
1.66992e-05
1.67236e-05
1.67236e-05
1.67236e-05
1.67236e-05
1.67236e-05
1.6748e-05
1.67236e-05
1.67236e-05
1.6748e-05
1.6748e-05
1.66992e-05
1.66992e-05
1.67236e-05
1.6748e-05
1.67236e-05
1.6748e-05
1.6748e-05
1.6748e-05
1.6748e-05
1.6748e-05
1.6748e-05
1.67725e-05
1.6748e-05
1.67725e-05
1.67725e-05
1.67725e-05
1.67969e-05
1.67725e-05
1.67725e-05
1.67725e-05
1.67725e-05
1.67725e-05
1.67725e-05
1.67725e-05
1.67725e-05
1.67725e-05
1.67725e-05
1.67969e-05
1.67725e-05
1.67725e-05
1.67725e-05
1.67969e-05
1.67969e-05
1.67969e-05
1.67969e-05
1.67969e-05
1.67969e-05
1.67969e-05
1.67969e-05
1.68213e-05
1.67969e-05
1.68213e-05
1.68213e-05
1.68213e-05
1.67969e-05
1.68213e-05
1.68213e-05
1.68213e-05
1.68213e-05
1.68213e-05
1.68213e-05
1.68213e-05
1.68213e-05
1.68213e-05
1.68213e-05
1.68457e-05
1.68213e-05
1.68213e-05
1.68213e-05
1.68213e-05
1.68457e-05
1.68213e-05
1.67969e-05
1.67969e-05
1.68213e-05
1.68213e-05
1.68213e-05
1.68213e-05
1.68457e-05
1.68213e-05
1.68213e-05
1.68213e-05
1.68457e-05
1.68457e-05
1.68213e-05
1.68213e-05
1.68457e-05
1.68457e-05
1.68213e-05
1.68457e-05
1.68457e-05
1.68213e-05
1.68213e-05
1.68213e-05
1.68457e-05
1.68213e-05
1.68213e-05
1.68213e-05
1.68213e-05
1.68213e-05
1.68213e-05
1.68213e-05
1.68213e-05
1.68213e-05
1.68213e-05
1.68213e-05
1.68213e-05
1.68213e-05
1.68213e-05
1.68213e-05
1.68457e-05
1.68213e-05
1.68213e-05
1.68213e-05
1.68213e-05
1.68457e-05
1.68213e-05
1.68213e-05
1.68213e-05
1.68213e-05
1.68213e-05
1.68213e-05
1.68213e-05
1.68213e-05
1.67969e-05
1.67969e-05
1.68213e-05
1.68213e-05
1.67969e-05
1.67969e-05
1.68213e-05
1.68213e-05
1.67969e-05
1.67969e-05
1.67969e-05
1.67725e-05
1.67969e-05
1.67969e-05
1.67969e-05
1.67969e-05
1.67969e-05
1.67969e-05
1.67969e-05
1.67969e-05
1.67969e-05
1.67969e-05
1.67969e-05
1.67969e-05
1.67969e-05
1.67969e-05
1.67969e-05
1.67969e-05
1.67725e-05
1.67725e-05
1.67969e-05
1.67725e-05
1.67725e-05
1.67725e-05
1.67725e-05
1.67725e-05
1.6748e-05
1.67725e-05
1.67725e-05
1.6748e-05
1.6748e-05
1.6748e-05
1.67725e-05
1.67725e-05
1.6748e-05
1.6748e-05
1.6748e-05
1.6748e-05
1.6748e-05
1.6748e-05
1.6748e-05
1.6748e-05
1.6748e-05
1.6748e-05
1.6748e-05
1.6748e-05
1.6748e-05
1.6748e-05
1.6748e-05
1.6748e-05
1.67236e-05
1.67236e-05
1.67236e-05
1.67236e-05
1.66992e-05
1.67236e-05
1.67236e-05
1.66992e-05
1.66992e-05
1.66992e-05
1.67236e-05
1.67236e-05
1.66992e-05
1.66992e-05
1.66992e-05
1.66748e-05
1.66748e-05
1.66748e-05
1.66992e-05
1.66992e-05
1.66992e-05
1.66992e-05
1.66992e-05
1.66992e-05
1.66992e-05
1.66992e-05
1.66748e-05
1.66748e-05
1.66748e-05
1.66992e-05
1.66748e-05
1.66748e-05
1.66748e-05
1.66748e-05
1.66748e-05
1.66748e-05
1.66748e-05
1.66748e-05
1.66504e-05
1.66504e-05
1.66504e-05
1.66504e-05
1.66504e-05
1.66504e-05
1.6626e-05
1.66504e-05
1.66504e-05
1.66504e-05
1.66504e-05
1.66504e-05
1.6626e-05
1.66504e-05
1.6626e-05
1.66504e-05
1.6626e-05
1.6626e-05
1.6626e-05
1.66504e-05
1.66504e-05
1.6626e-05
1.6626e-05
1.66504e-05
1.6626e-05
1.6626e-05
1.6626e-05
1.66504e-05
1.66504e-05
1.66504e-05
1.6626e-05
1.66504e-05
1.66504e-05
1.6626e-05
1.6626e-05
1.66504e-05
1.66504e-05
1.6626e-05
1.6626e-05
1.66504e-05
1.6626e-05
1.66504e-05
1.66504e-05
1.66504e-05
1.66504e-05
1.66504e-05
1.66504e-05
1.66504e-05
1.6626e-05
1.66016e-05
1.6626e-05
1.66504e-05
1.6626e-05
1.6626e-05
1.6626e-05
1.66504e-05
1.66504e-05
1.66504e-05
1.66504e-05
1.66504e-05
1.66504e-05
1.66504e-05
1.66504e-05
1.66504e-05
1.66504e-05
1.66504e-05
1.66504e-05
1.66748e-05
1.66504e-05
1.66504e-05
1.66504e-05
1.66504e-05
1.66504e-05
1.66504e-05
1.6626e-05
1.66504e-05
1.6626e-05
1.6626e-05
1.6626e-05
1.6626e-05
1.66504e-05
1.66504e-05
1.66504e-05
1.66504e-05
1.66504e-05
1.66504e-05
1.66504e-05
1.66504e-05
1.66504e-05
1.66504e-05
1.66504e-05
1.66504e-05
1.66504e-05
1.66504e-05
1.66504e-05
1.66504e-05
1.66504e-05
1.66504e-05
1.6626e-05
1.66504e-05
1.6626e-05
1.66504e-05
1.66504e-05
1.6626e-05
1.66504e-05
1.6626e-05
1.6626e-05
1.66504e-05
1.6626e-05
1.6626e-05
1.6626e-05
1.6626e-05
1.6626e-05
1.6626e-05
1.6626e-05
1.66504e-05
1.6626e-05
1.6626e-05
1.66016e-05
1.66016e-05
1.66016e-05
1.66016e-05
1.6626e-05
1.6626e-05
1.6626e-05
1.6626e-05
1.66016e-05
1.6626e-05
1.6626e-05
1.6626e-05
1.6626e-05
1.6626e-05
1.66016e-05
1.66016e-05
1.66016e-05
1.6626e-05
1.66016e-05
1.66016e-05
1.66016e-05
1.66016e-05
1.65771e-05
1.65771e-05
1.65771e-05
1.66016e-05
1.65771e-05
1.65771e-05
1.65771e-05
1.65771e-05
1.65771e-05
1.65771e-05
1.65771e-05
1.65771e-05
1.65771e-05
1.65771e-05
1.65771e-05
1.65771e-05
1.65771e-05
1.65771e-05
1.65771e-05
1.65771e-05
1.65771e-05
1.65771e-05
1.65771e-05
1.65771e-05
1.65527e-05
1.65527e-05
1.65527e-05
1.65771e-05
1.65527e-05
1.65527e-05
1.65527e-05
1.65527e-05
1.65527e-05
1.65527e-05
1.65527e-05
1.65527e-05
1.65283e-05
1.65283e-05
1.65283e-05
1.65283e-05
1.65283e-05
1.65283e-05
1.65283e-05
1.65283e-05
1.65283e-05
1.65283e-05
1.65283e-05
1.65283e-05
1.65039e-05
1.64795e-05
1.64795e-05
1.64795e-05
1.64795e-05
1.64795e-05
1.64795e-05
1.65039e-05
1.64795e-05
1.64795e-05
1.64795e-05
1.64795e-05
1.64795e-05
1.64795e-05
1.64795e-05
1.64795e-05
1.64795e-05
1.64795e-05
1.64795e-05
1.64795e-05
1.64795e-05
1.64795e-05
1.64551e-05
1.64551e-05
1.64551e-05
1.64551e-05
1.64551e-05
1.64551e-05
1.64551e-05
1.64551e-05
1.64551e-05
1.64551e-05
1.64551e-05
1.64307e-05
1.64551e-05
1.64551e-05
1.64307e-05
1.64307e-05
1.64307e-05
1.64307e-05
1.64307e-05
1.64307e-05
1.64307e-05
1.64307e-05
1.64307e-05
1.64307e-05
1.64307e-05
1.64307e-05
1.64307e-05
1.64307e-05
1.64307e-05
1.64307e-05
1.64307e-05
1.64307e-05
1.64062e-05
1.64062e-05
1.64062e-05
1.64062e-05
1.64062e-05
1.64062e-05
1.64062e-05
1.64062e-05
1.64062e-05
1.64062e-05
1.64062e-05
1.64062e-05
1.64062e-05
1.64062e-05
1.63818e-05
1.63818e-05
1.63818e-05
1.63818e-05
1.63818e-05
1.63818e-05
1.63818e-05
1.63818e-05
1.63818e-05
1.64062e-05
1.63818e-05
1.63818e-05
1.63818e-05
1.63818e-05
1.63818e-05
1.63818e-05
1.63818e-05
1.63818e-05
1.63818e-05
1.63818e-05
1.63818e-05
1.63818e-05
1.63818e-05
1.63818e-05
1.63818e-05
1.63818e-05
1.63818e-05
1.63818e-05
1.63818e-05
1.63818e-05
1.63818e-05
1.63818e-05
1.63818e-05
1.63818e-05
1.63818e-05
1.63818e-05
1.64062e-05
1.64062e-05
1.64062e-05
1.64062e-05
1.64062e-05
1.64062e-05
1.64062e-05
1.64062e-05
1.64062e-05
1.64062e-05
1.64062e-05
1.64062e-05
1.64307e-05
1.64307e-05
1.64062e-05
1.64062e-05
1.64307e-05
1.64307e-05
1.64307e-05
1.64062e-05
1.64307e-05
1.64307e-05
1.64307e-05
1.64307e-05
1.64307e-05
1.64307e-05
1.64307e-05
1.64307e-05
1.64551e-05
1.64307e-05
1.64062e-05
1.64062e-05
1.64062e-05
1.64307e-05
1.64307e-05
1.64307e-05
1.64307e-05
1.64307e-05
1.64307e-05
1.64307e-05
1.64551e-05
1.64307e-05
1.64307e-05
1.64307e-05
1.64307e-05
1.64307e-05
1.64307e-05
1.64307e-05
1.64307e-05
1.64307e-05
1.64307e-05
1.64307e-05
1.64307e-05
1.64307e-05
1.64307e-05
1.64307e-05
1.64307e-05
1.64307e-05
1.64062e-05
1.64062e-05
1.64307e-05
1.64062e-05
1.64062e-05
1.64062e-05
1.64307e-05
1.64062e-05
1.64062e-05
1.64062e-05
1.64062e-05
1.64062e-05
1.64062e-05
1.64062e-05
1.64062e-05
1.64062e-05
1.63818e-05
1.64062e-05
1.63818e-05
1.63818e-05
1.63818e-05
1.64062e-05
1.63818e-05
1.63818e-05
1.63818e-05
1.63818e-05
1.63818e-05
1.63818e-05
1.63818e-05
1.63818e-05
1.63818e-05
1.63818e-05
1.63574e-05
1.63818e-05
1.63574e-05
1.63574e-05
1.63574e-05
1.63574e-05
1.6333e-05
1.6333e-05
1.6333e-05
1.63574e-05
1.6333e-05
1.6333e-05
1.6333e-05
1.6333e-05
1.6333e-05
1.6333e-05
1.6333e-05
1.6333e-05
1.6333e-05
1.6333e-05
1.6333e-05
1.6333e-05
1.6333e-05
1.63086e-05
1.63086e-05
1.6333e-05
1.63086e-05
1.63086e-05
1.63086e-05
1.6333e-05
1.63086e-05
1.6333e-05
1.63086e-05
1.6333e-05
1.6333e-05
1.6333e-05
1.6333e-05
1.63574e-05
1.6333e-05
1.63574e-05
1.63574e-05
1.63574e-05
1.63818e-05
1.63818e-05
1.63818e-05
1.63818e-05
1.63818e-05
1.64062e-05
1.64062e-05
1.64307e-05
1.64307e-05
1.64307e-05
1.64551e-05
1.64795e-05
1.64795e-05
1.65039e-05
1.65039e-05
1.65039e-05
1.65283e-05
1.65527e-05
1.65527e-05
1.65771e-05
1.65771e-05
1.66016e-05
1.6626e-05
1.66504e-05
1.66504e-05
1.66748e-05
1.66992e-05
1.66992e-05
1.67236e-05
1.67236e-05
1.67236e-05
1.6748e-05
1.67725e-05
1.67969e-05
1.68213e-05
1.68457e-05
1.68457e-05
1.68701e-05
1.68701e-05
1.68945e-05
1.69189e-05
1.69189e-05
1.69434e-05
1.69678e-05
1.69678e-05
1.69922e-05
1.69922e-05
1.70166e-05
1.70166e-05
1.70166e-05
1.7041e-05
1.70654e-05
1.70654e-05
1.70654e-05
1.70654e-05
1.70898e-05
1.70898e-05
1.70898e-05
1.70898e-05
1.70898e-05
1.70898e-05
1.70898e-05
1.71143e-05
1.70898e-05
1.70898e-05
1.71143e-05
1.71143e-05
1.71143e-05
1.70898e-05
1.71143e-05
1.70898e-05
1.70898e-05
1.70898e-05
1.70898e-05
1.70654e-05
1.70654e-05
1.70654e-05
1.70654e-05
1.7041e-05
1.70166e-05
1.70166e-05
1.70166e-05
1.69922e-05
1.69922e-05
1.69922e-05
1.69678e-05
1.69434e-05
1.69434e-05
1.69189e-05
1.69189e-05
1.68945e-05
1.68945e-05
1.68701e-05
1.68701e-05
1.68457e-05
1.68457e-05
1.68213e-05
1.67969e-05
1.67725e-05
1.6748e-05
1.6748e-05
1.6748e-05
1.67236e-05
1.67236e-05
1.66992e-05
1.66992e-05
1.66748e-05
1.66748e-05
1.66504e-05
1.66504e-05
1.6626e-05
1.66016e-05
1.66016e-05
1.66016e-05
1.65771e-05
1.65771e-05
1.65527e-05
1.65527e-05
1.65283e-05
1.65039e-05
1.64795e-05
1.64795e-05
1.64795e-05
1.64551e-05
1.64551e-05
1.64307e-05
1.64307e-05
1.64062e-05
1.64062e-05
1.64062e-05
1.63818e-05
1.63818e-05
1.63818e-05
1.63818e-05
1.63574e-05
1.63574e-05
1.63574e-05
1.63574e-05
1.6333e-05
1.63086e-05
1.63086e-05
1.63086e-05
1.63086e-05
1.62842e-05
1.62842e-05
1.62842e-05
1.62842e-05
1.62598e-05
1.62598e-05
1.62598e-05
1.62354e-05
1.62354e-05
1.62109e-05
1.62354e-05
1.62109e-05
1.62109e-05
1.62109e-05
1.62109e-05
1.61865e-05
1.61865e-05
1.61865e-05
1.61865e-05
1.61621e-05
1.61621e-05
1.61621e-05
1.61377e-05
1.61133e-05
1.61133e-05
1.61133e-05
1.61133e-05
1.60889e-05
1.60889e-05
1.60889e-05
1.60889e-05
1.60889e-05
1.60889e-05
1.60889e-05
1.60889e-05
1.60645e-05
1.60645e-05
1.60645e-05
1.60645e-05
1.60645e-05
1.604e-05
1.604e-05
1.604e-05
1.60156e-05
1.60156e-05
1.60156e-05
1.60156e-05
1.59912e-05
1.59912e-05
1.59912e-05
1.59912e-05
1.59912e-05
1.59912e-05
1.59668e-05
1.59668e-05
1.59668e-05
1.59668e-05
1.59668e-05
1.59668e-05
1.59668e-05
1.59668e-05
1.59668e-05
1.59668e-05
1.59424e-05
1.59668e-05
1.59424e-05
1.59424e-05
1.59424e-05
1.59424e-05
1.59424e-05
1.59424e-05
1.59424e-05
1.59424e-05
1.59424e-05
1.59424e-05
1.5918e-05
1.59424e-05
1.59424e-05
1.5918e-05
1.5918e-05
1.5918e-05
1.5918e-05
1.5918e-05
1.5918e-05
1.5918e-05
1.5918e-05
1.5918e-05
1.5918e-05
1.5918e-05
1.5918e-05
1.58936e-05
1.58691e-05
1.58936e-05
1.58936e-05
1.58936e-05
1.58936e-05
1.58936e-05
1.58691e-05
1.58936e-05
1.58936e-05
1.58936e-05
1.58936e-05
1.58936e-05
1.58691e-05
1.58691e-05
1.58691e-05
1.58691e-05
1.58691e-05
1.58691e-05
1.58691e-05
1.58691e-05
1.58691e-05
1.58691e-05
1.58447e-05
1.58691e-05
1.58447e-05
1.58447e-05
1.58447e-05
1.58447e-05
1.58447e-05
1.58447e-05
1.58447e-05
1.58447e-05
1.58447e-05
1.58691e-05
1.58691e-05
1.58691e-05
1.58691e-05
1.58691e-05
1.58691e-05
1.58691e-05
1.58936e-05
1.58691e-05
1.58691e-05
1.58936e-05
1.58936e-05
1.58936e-05
1.58936e-05
1.58936e-05
1.58936e-05
1.5918e-05
1.5918e-05
1.5918e-05
1.5918e-05
1.5918e-05
1.5918e-05
1.59424e-05
1.59424e-05
1.59668e-05
1.59424e-05
1.59668e-05
1.59668e-05
1.59912e-05
1.59912e-05
1.59668e-05
1.59668e-05
1.59912e-05
1.59912e-05
1.60156e-05
1.60156e-05
1.60156e-05
1.604e-05
1.604e-05
1.604e-05
1.60645e-05
1.60645e-05
1.60889e-05
1.60889e-05
1.60889e-05
1.60889e-05
1.60889e-05
1.61133e-05
1.61133e-05
1.61377e-05
1.61377e-05
1.61377e-05
1.61377e-05
1.61621e-05
1.61621e-05
1.61621e-05
1.61621e-05
1.61865e-05
1.61865e-05
1.61865e-05
1.62109e-05
1.62109e-05
1.62109e-05
1.62354e-05
1.62354e-05
1.62354e-05
1.62354e-05
1.62598e-05
1.62598e-05
1.62598e-05
1.62842e-05
1.62842e-05
1.62842e-05
1.62842e-05
1.63086e-05
1.63086e-05
1.63086e-05
1.63086e-05
1.63086e-05
1.6333e-05
1.6333e-05
1.6333e-05
1.6333e-05
1.6333e-05
1.6333e-05
1.6333e-05
1.63574e-05
1.63574e-05
1.63574e-05
1.63574e-05
1.63574e-05
1.63818e-05
1.63818e-05
1.63818e-05
1.63574e-05
1.63574e-05
1.63818e-05
1.63818e-05
1.63818e-05
1.63818e-05
1.63818e-05
1.63818e-05
1.63818e-05
1.64062e-05
1.64062e-05
1.64062e-05
1.64062e-05
1.64062e-05
1.64062e-05
1.64062e-05
1.64062e-05
1.64062e-05
1.64307e-05
1.64062e-05
1.64307e-05
1.64062e-05
1.64307e-05
1.64062e-05
1.64062e-05
1.64062e-05
1.64062e-05
1.64062e-05
1.64062e-05
1.64062e-05
1.64062e-05
1.64062e-05
1.64062e-05
1.64062e-05
1.64062e-05
1.64062e-05
1.64062e-05
1.64062e-05
1.64307e-05
1.64062e-05
1.64062e-05
1.64062e-05
1.64062e-05
1.64062e-05
1.64062e-05
1.64062e-05
1.64062e-05
1.64062e-05
1.64062e-05
1.64062e-05
1.64062e-05
1.64062e-05
1.64062e-05
1.63818e-05
1.63818e-05
1.63818e-05
1.63818e-05
1.63818e-05
1.63818e-05
1.63818e-05
1.63818e-05
1.63818e-05
1.63818e-05
1.63818e-05
1.63818e-05
1.63574e-05
1.6333e-05
1.63086e-05
1.6333e-05
1.6333e-05
1.6333e-05
1.6333e-05
1.6333e-05
1.6333e-05
1.6333e-05
1.6333e-05
1.6333e-05
1.6333e-05
1.63086e-05
1.63086e-05
1.63086e-05
1.63086e-05
1.63086e-05
1.63086e-05
1.63086e-05
1.63086e-05
1.62842e-05
1.62842e-05
1.62842e-05
1.62842e-05
1.62842e-05
1.62842e-05
1.62598e-05
1.62598e-05
1.62598e-05
1.62598e-05
1.62598e-05
1.62598e-05
1.62598e-05
1.62598e-05
1.62598e-05
1.62354e-05
1.62598e-05
1.62598e-05
1.62354e-05
1.62354e-05
1.62354e-05
1.62354e-05
1.62354e-05
1.62354e-05
1.62354e-05
1.62354e-05
1.62354e-05
1.62109e-05
1.62109e-05
1.62109e-05
1.62109e-05
1.62109e-05
1.62109e-05
1.62109e-05
1.62109e-05
1.62109e-05
1.61865e-05
1.61865e-05
1.61865e-05
1.61865e-05
1.61865e-05
1.61865e-05
1.61865e-05
1.61621e-05
1.61377e-05
1.61377e-05
1.61621e-05
1.61377e-05
1.61621e-05
1.61377e-05
1.61621e-05
1.61377e-05
1.61377e-05
1.61377e-05
1.61377e-05
1.61377e-05
1.61377e-05
1.61377e-05
1.61377e-05
1.61377e-05
1.61133e-05
1.61133e-05
1.61133e-05
1.61133e-05
1.61133e-05
1.60889e-05
1.61133e-05
1.60889e-05
1.60889e-05
1.60889e-05
1.60889e-05
1.60889e-05
1.60889e-05
1.60889e-05
1.60889e-05
1.60889e-05
1.60889e-05
1.60889e-05
1.60889e-05
1.60889e-05
1.60889e-05
1.60889e-05
1.60889e-05
1.60889e-05
1.60645e-05
1.60889e-05
1.60889e-05
1.60645e-05
1.60645e-05
1.60645e-05
1.60889e-05
1.60645e-05
1.60645e-05
1.60645e-05
1.60645e-05
1.60645e-05
1.60645e-05
1.60645e-05
1.60645e-05
1.60645e-05
1.60645e-05
1.60645e-05
1.60645e-05
1.60645e-05
1.604e-05
1.604e-05
1.60645e-05
1.60645e-05
1.604e-05
1.604e-05
1.60156e-05
1.60156e-05
1.604e-05
1.604e-05
1.604e-05
1.604e-05
1.604e-05
1.604e-05
1.604e-05
1.604e-05
1.604e-05
1.604e-05
1.604e-05
1.604e-05
1.604e-05
1.604e-05
1.604e-05
1.604e-05
1.604e-05
1.604e-05
1.604e-05
1.604e-05
1.604e-05
1.60156e-05
1.60156e-05
1.60156e-05
1.60156e-05
1.60156e-05
1.60156e-05
1.60156e-05
1.604e-05
1.604e-05
1.60156e-05
1.60156e-05
1.604e-05
1.60156e-05
1.604e-05
1.604e-05
1.604e-05
1.604e-05
1.604e-05
1.604e-05
1.604e-05
1.604e-05
1.604e-05
1.604e-05
1.604e-05
1.604e-05
1.604e-05
1.604e-05
1.604e-05
1.604e-05
1.604e-05
1.604e-05
1.604e-05
1.604e-05
1.604e-05
1.60156e-05
1.60156e-05
1.60156e-05
1.60156e-05
1.60156e-05
1.60156e-05
1.60156e-05
1.60156e-05
1.60156e-05
1.60156e-05
1.60156e-05
1.60156e-05
1.59912e-05
1.59912e-05
1.59912e-05
1.60156e-05
1.60156e-05
1.60156e-05
1.60156e-05
1.60156e-05
1.60156e-05
1.60156e-05
1.60156e-05
1.60156e-05
1.60156e-05
1.60156e-05
1.60156e-05
1.60156e-05
1.60156e-05
1.60156e-05
1.60156e-05
1.60156e-05
1.60156e-05
1.60156e-05
1.59912e-05
1.59912e-05
1.59912e-05
1.59912e-05
1.59912e-05
1.59912e-05
1.59912e-05
1.59912e-05
1.59912e-05
1.59912e-05
1.59912e-05
1.59912e-05
1.59912e-05
1.59912e-05
1.59912e-05
1.59912e-05
1.59912e-05
1.59912e-05
1.59912e-05
1.59912e-05
1.59912e-05
1.59912e-05
1.59912e-05
1.59912e-05
1.59912e-05
1.59912e-05
1.59912e-05
1.59912e-05
1.59912e-05
1.59912e-05
1.59912e-05
1.59912e-05
1.59912e-05
1.59912e-05
1.59668e-05
1.59912e-05
1.59912e-05
1.59912e-05
1.59912e-05
1.59668e-05
1.59668e-05
1.59668e-05
1.59668e-05
1.59668e-05
1.59668e-05
1.59668e-05
1.59668e-05
1.59668e-05
1.59668e-05
1.59668e-05
1.59668e-05
1.59424e-05
1.59424e-05
1.59424e-05
1.59424e-05
1.59424e-05
1.59668e-05
1.59668e-05
1.59424e-05
1.59668e-05
1.59668e-05
1.59668e-05
1.59668e-05
1.59668e-05
1.59668e-05
1.59668e-05
1.59668e-05
1.59668e-05
1.59424e-05
1.59668e-05
1.59424e-05
1.59668e-05
1.59424e-05
1.59424e-05
1.59424e-05
1.59424e-05
1.59424e-05
1.59424e-05
1.5918e-05
1.5918e-05
1.5918e-05
1.59424e-05
1.5918e-05
1.59424e-05
1.59424e-05
1.59424e-05
1.59424e-05
1.59424e-05
1.59424e-05
1.59424e-05
1.5918e-05
1.59424e-05
1.59424e-05
1.59424e-05
1.5918e-05
1.5918e-05
1.5918e-05
1.5918e-05
1.5918e-05
1.5918e-05
1.5918e-05
1.5918e-05
1.5918e-05
1.5918e-05
1.5918e-05
1.5918e-05
1.5918e-05
1.5918e-05
1.5918e-05
1.5918e-05
1.5918e-05
1.5918e-05
1.5918e-05
1.5918e-05
1.5918e-05
1.5918e-05
1.5918e-05
1.5918e-05
1.5918e-05
1.5918e-05
1.58936e-05
1.58936e-05
1.58936e-05
1.58936e-05
1.58936e-05
1.58936e-05
1.58936e-05
1.5918e-05
1.58936e-05
1.58936e-05
1.5918e-05
1.5918e-05
1.5918e-05
1.58936e-05
1.58936e-05
1.5918e-05
1.5918e-05
1.58936e-05
1.58936e-05
1.58936e-05
1.58936e-05
1.58936e-05
1.58936e-05
1.58936e-05
1.58936e-05
1.58936e-05
1.58936e-05
1.58936e-05
1.58936e-05
1.58936e-05
1.58936e-05
1.58936e-05
1.58936e-05
1.58936e-05
1.58936e-05
1.58936e-05
1.58936e-05
1.58936e-05
1.58936e-05
1.58936e-05
1.58936e-05
1.58936e-05
1.58936e-05
1.58936e-05
1.58936e-05
1.58936e-05
1.58936e-05
1.58936e-05
1.58936e-05
1.58936e-05
1.58936e-05
1.58936e-05
1.58936e-05
1.58936e-05
1.58936e-05
1.5918e-05
1.58936e-05
1.58936e-05
1.58936e-05
1.58936e-05
1.58936e-05
1.58936e-05
1.58936e-05
1.58936e-05
1.58936e-05
1.58936e-05
1.58936e-05
1.58936e-05
1.58936e-05
1.5918e-05
1.58936e-05
1.58691e-05
1.58691e-05
1.58691e-05
1.58691e-05
1.58936e-05
1.58936e-05
1.58936e-05
1.58936e-05
1.58936e-05
1.58936e-05
1.58936e-05
1.58936e-05
1.58936e-05
1.58936e-05
1.58936e-05
1.58936e-05
1.58936e-05
1.58936e-05
1.58936e-05
1.58936e-05
1.58936e-05
1.58691e-05
1.58936e-05
1.58691e-05
1.58691e-05
1.58691e-05
1.58691e-05
1.58691e-05
1.58691e-05
1.58691e-05
1.58691e-05
1.58691e-05
1.58691e-05
1.58691e-05
1.58936e-05
1.58691e-05
1.58691e-05
1.58691e-05
1.58691e-05
1.58691e-05
1.58691e-05
1.58691e-05
1.58691e-05
1.58691e-05
1.58691e-05
1.58691e-05
1.58691e-05
1.58691e-05
1.58691e-05
1.58691e-05
1.58691e-05
1.58691e-05
1.58691e-05
1.58691e-05
1.58691e-05
1.58691e-05
1.58447e-05
1.58447e-05
1.58447e-05
1.58447e-05
1.58447e-05
1.58447e-05
1.58447e-05
1.58447e-05
1.58447e-05
1.58447e-05
1.58447e-05
1.58447e-05
1.58447e-05
1.58203e-05
1.58203e-05
1.58203e-05
1.58203e-05
1.58203e-05
1.58447e-05
1.58203e-05
1.58203e-05
1.58447e-05
1.58447e-05
1.58447e-05
1.58203e-05
1.58447e-05
1.58447e-05
1.58203e-05
1.58447e-05
1.58203e-05
1.58447e-05
1.58447e-05
1.58203e-05
1.58203e-05
1.58203e-05
1.58203e-05
1.58203e-05
1.58203e-05
1.58203e-05
1.58203e-05
1.57959e-05
1.57959e-05
1.57959e-05
1.58203e-05
1.58203e-05
1.57959e-05
1.58203e-05
1.57959e-05
1.57959e-05
1.57959e-05
1.58203e-05
1.57959e-05
1.57959e-05
1.57959e-05
1.57959e-05
1.57959e-05
1.57959e-05
1.57959e-05
1.57959e-05
1.57959e-05
1.57959e-05
1.57959e-05
1.57959e-05
1.57959e-05
1.57959e-05
1.57959e-05
1.57959e-05
1.57959e-05
1.57959e-05
1.57959e-05
1.57959e-05
1.57959e-05
1.57959e-05
1.57959e-05
1.57959e-05
1.57959e-05
1.57959e-05
1.57959e-05
1.57959e-05
1.57715e-05
1.57471e-05
1.57715e-05
1.57715e-05
1.57715e-05
1.57715e-05
1.57715e-05
1.57715e-05
1.57715e-05
1.57715e-05
1.57715e-05
1.57715e-05
1.57715e-05
1.57715e-05
1.57715e-05
1.57715e-05
1.57715e-05
1.57715e-05
1.57715e-05
1.57715e-05
1.57715e-05
1.57715e-05
1.57715e-05
1.57715e-05
1.57715e-05
1.57471e-05
1.57471e-05
1.57471e-05
1.57471e-05
1.57471e-05
1.57471e-05
1.57471e-05
1.57471e-05
1.57471e-05
1.57471e-05
1.57471e-05
1.57471e-05
1.57471e-05
1.57715e-05
1.57471e-05
1.57471e-05
1.57471e-05
1.57471e-05
1.57471e-05
1.57471e-05
1.57471e-05
1.57471e-05
1.57471e-05
1.57471e-05
1.57471e-05
1.57471e-05
1.57471e-05
1.57471e-05
1.57471e-05
1.57227e-05
1.57471e-05
1.57227e-05
1.57471e-05
1.57227e-05
1.57227e-05
1.57227e-05
1.57471e-05
1.57471e-05
1.57227e-05
1.56982e-05
1.57227e-05
1.57227e-05
1.57227e-05
1.57227e-05
1.57227e-05
1.57227e-05
1.57227e-05
1.57227e-05
1.57227e-05
1.57227e-05
1.57227e-05
1.57227e-05
1.57227e-05
1.57227e-05
1.57227e-05
1.57227e-05
1.57227e-05
1.56982e-05
1.56982e-05
1.56982e-05
1.56982e-05
1.56982e-05
1.56982e-05
1.56982e-05
1.56982e-05
1.56982e-05
1.56982e-05
1.56982e-05
1.56982e-05
1.56982e-05
1.56982e-05
1.56982e-05
1.56982e-05
1.56982e-05
1.56982e-05
1.56982e-05
1.56982e-05
1.56982e-05
1.56982e-05
1.56982e-05
1.56982e-05
1.56982e-05
1.56982e-05
1.56982e-05
1.56982e-05
1.56982e-05
1.56982e-05
1.56982e-05
1.56982e-05
1.56982e-05
1.56982e-05
1.56738e-05
1.56982e-05
1.56738e-05
1.56738e-05
1.56982e-05
1.56738e-05
1.56738e-05
1.56982e-05
1.56738e-05
1.56738e-05
1.56738e-05
1.56494e-05
1.56494e-05
1.56494e-05
1.56494e-05
1.56738e-05
1.56738e-05
1.56738e-05
1.56494e-05
1.56738e-05
1.56738e-05
1.56738e-05
1.56494e-05
1.56738e-05
1.56738e-05
1.56494e-05
1.56494e-05
1.56738e-05
1.56494e-05
1.56494e-05
1.56494e-05
1.56494e-05
1.56494e-05
1.56494e-05
1.56494e-05
1.56494e-05
1.5625e-05
1.5625e-05
1.5625e-05
1.5625e-05
1.56494e-05
1.56494e-05
1.56494e-05
1.56494e-05
1.56494e-05
1.56494e-05
1.56494e-05
1.56494e-05
1.56494e-05
1.56494e-05
1.56494e-05
1.5625e-05
1.56494e-05
1.5625e-05
1.5625e-05
1.5625e-05
1.5625e-05
1.56494e-05
1.5625e-05
1.5625e-05
1.5625e-05
1.5625e-05
1.5625e-05
1.5625e-05
1.5625e-05
1.5625e-05
1.5625e-05
1.5625e-05
1.5625e-05
1.5625e-05
1.5625e-05
1.5625e-05
1.5625e-05
1.5625e-05
1.56006e-05
1.56006e-05
1.56006e-05
1.56006e-05
1.56006e-05
1.5625e-05
1.5625e-05
1.5625e-05
1.5625e-05
1.5625e-05
1.5625e-05
1.5625e-05
1.5625e-05
1.56494e-05
1.5625e-05
1.5625e-05
1.56494e-05
1.56494e-05
1.56494e-05
1.56494e-05
1.56494e-05
1.56494e-05
1.56494e-05
1.56494e-05
1.56494e-05
1.56494e-05
1.56494e-05
1.56494e-05
1.56494e-05
1.56494e-05
1.56494e-05
1.56738e-05
1.56738e-05
1.56738e-05
1.56738e-05
1.56982e-05
1.56982e-05
1.56982e-05
1.56982e-05
1.56982e-05
1.56982e-05
1.56982e-05
1.57227e-05
1.57227e-05
1.57227e-05
1.57227e-05
1.57227e-05
1.57227e-05
1.57471e-05
1.57471e-05
1.57471e-05
1.57715e-05
1.57471e-05
1.57715e-05
1.57715e-05
1.57715e-05
1.57715e-05
1.57715e-05
1.57715e-05
1.57715e-05
1.57959e-05
1.57959e-05
1.57959e-05
1.57959e-05
1.57959e-05
1.57959e-05
1.57959e-05
1.57959e-05
1.57959e-05
1.57959e-05
1.57959e-05
1.58203e-05
1.58203e-05
1.58203e-05
1.58203e-05
1.58447e-05
1.58447e-05
1.58447e-05
1.58447e-05
1.58447e-05
1.58447e-05
1.58447e-05
1.58691e-05
1.58447e-05
1.58691e-05
1.58691e-05
1.58691e-05
1.58691e-05
1.58691e-05
1.58691e-05
1.58691e-05
1.58691e-05
1.58691e-05
1.58691e-05
1.58691e-05
1.58691e-05
1.58691e-05
1.58936e-05
1.58936e-05
1.58936e-05
1.58936e-05
1.58936e-05
1.58936e-05
1.58936e-05
1.58936e-05
1.58936e-05
1.58936e-05
1.58936e-05
1.58936e-05
1.58936e-05
1.58936e-05
1.58936e-05
1.58936e-05
1.58936e-05
1.58936e-05
1.58936e-05
1.58936e-05
1.58936e-05
1.58936e-05
1.58936e-05
1.58936e-05
1.58936e-05
1.58936e-05
1.58936e-05
1.58936e-05
1.58936e-05
1.58936e-05
1.58936e-05
1.58936e-05
1.58691e-05
1.58691e-05
1.58936e-05
1.58936e-05
1.58936e-05
1.58936e-05
1.58936e-05
1.58691e-05
1.58447e-05
1.58447e-05
1.58447e-05
1.58447e-05
1.58447e-05
1.58691e-05
1.58447e-05
1.58691e-05
1.58691e-05
1.58447e-05
1.58447e-05
1.58691e-05
1.58447e-05
1.58447e-05
1.58447e-05
1.58447e-05
1.58447e-05
1.58447e-05
1.58447e-05
1.58447e-05
1.58447e-05
1.58203e-05
1.58203e-05
1.58203e-05
1.58203e-05
1.58203e-05
1.58203e-05
1.57959e-05
1.57959e-05
1.57959e-05
1.57959e-05
1.57959e-05
1.57959e-05
1.57959e-05
1.57959e-05
1.57959e-05
1.57959e-05
1.57959e-05
1.57959e-05
1.57959e-05
1.57959e-05
1.57959e-05
1.57959e-05
1.57959e-05
1.57959e-05
1.57959e-05
1.57959e-05
1.57959e-05
1.57959e-05
1.57715e-05
1.57715e-05
1.57715e-05
1.57715e-05
1.57715e-05
1.57715e-05
1.57715e-05
1.57715e-05
1.57715e-05
1.57715e-05
1.57715e-05
1.57471e-05
1.57471e-05
1.57471e-05
1.57471e-05
1.57715e-05
1.57471e-05
1.57471e-05
1.57471e-05
1.57471e-05
1.57471e-05
1.57471e-05
1.57471e-05
1.57227e-05
1.57227e-05
1.57227e-05
1.57227e-05
1.57471e-05
1.57471e-05
1.57227e-05
1.57471e-05
1.57471e-05
1.57471e-05
1.57471e-05
1.57471e-05
1.57471e-05
1.57471e-05
1.57471e-05
1.57471e-05
1.57715e-05
1.57715e-05
1.57715e-05
1.57471e-05
1.57715e-05
1.57715e-05
1.57715e-05
1.57715e-05
1.57715e-05
1.57715e-05
1.57715e-05
1.57715e-05
1.57715e-05
1.57715e-05
1.57715e-05
1.57959e-05
1.57959e-05
1.57959e-05
1.57959e-05
1.58203e-05
1.58203e-05
1.58203e-05
1.58203e-05
1.58447e-05
1.58203e-05
1.58447e-05
1.58447e-05
1.58447e-05
1.58447e-05
1.58691e-05
1.58691e-05
1.58691e-05
1.58691e-05
1.58691e-05
1.58936e-05
1.58936e-05
1.58936e-05
1.58936e-05
1.58936e-05
1.58936e-05
1.5918e-05
1.5918e-05
1.5918e-05
1.5918e-05
1.5918e-05
1.5918e-05
1.5918e-05
1.5918e-05
1.59424e-05
1.59424e-05
1.5918e-05
1.5918e-05
1.5918e-05
1.5918e-05
1.59424e-05
1.59424e-05
1.59424e-05
1.59424e-05
1.59424e-05
1.59668e-05
1.59668e-05
1.59668e-05
1.59668e-05
1.59668e-05
1.59668e-05
1.59668e-05
1.59668e-05
1.59668e-05
1.59668e-05
1.59668e-05
1.59668e-05
1.59668e-05
1.59668e-05
1.59668e-05
1.59668e-05
1.59668e-05
1.59668e-05
1.59668e-05
1.59668e-05
1.59668e-05
1.59668e-05
1.59668e-05
1.59668e-05
1.59668e-05
1.59668e-05
1.59668e-05
1.59668e-05
1.59668e-05
1.59912e-05
1.59668e-05
1.59668e-05
1.59668e-05
1.59668e-05
1.59668e-05
1.59668e-05
1.59668e-05
1.59668e-05
1.59668e-05
1.59668e-05
1.59668e-05
1.59668e-05
1.59424e-05
1.59424e-05
1.59424e-05
1.59424e-05
1.59424e-05
1.59424e-05
1.59424e-05
1.59424e-05
1.59424e-05
1.59424e-05
1.59424e-05
1.59424e-05
1.59424e-05
1.5918e-05
1.5918e-05
1.5918e-05
1.5918e-05
1.58936e-05
1.58936e-05
1.58936e-05
1.58936e-05
1.58936e-05
1.58936e-05
1.58936e-05
1.58936e-05
1.58936e-05
1.58936e-05
1.58936e-05
1.58936e-05
1.58936e-05
1.58936e-05
1.58936e-05
1.58936e-05
1.58936e-05
1.58691e-05
1.58936e-05
1.58691e-05
1.58691e-05
1.58691e-05
1.58447e-05
1.58447e-05
1.58447e-05
1.58447e-05
1.58447e-05
1.58203e-05
1.58203e-05
1.58447e-05
1.58447e-05
1.58447e-05
1.58203e-05
1.58203e-05
1.58203e-05
1.58447e-05
1.58203e-05
1.58203e-05
1.58203e-05
1.58203e-05
1.58203e-05
1.58203e-05
1.58203e-05
1.58203e-05
1.57959e-05
1.58203e-05
1.58203e-05
1.57959e-05
1.57959e-05
1.57959e-05
1.58203e-05
1.57959e-05
1.57959e-05
1.57959e-05
1.57959e-05
1.57959e-05
1.57959e-05
1.57959e-05
1.57959e-05
1.57959e-05
1.57959e-05
1.57959e-05
1.57959e-05
1.57715e-05
1.57715e-05
1.57715e-05
1.57959e-05
1.57715e-05
1.57715e-05
1.57471e-05
1.57471e-05
1.57471e-05
1.57471e-05
1.57471e-05
1.57471e-05
1.57471e-05
1.57471e-05
1.57471e-05
1.57715e-05
1.57471e-05
1.57471e-05
1.57471e-05
1.57471e-05
1.57471e-05
1.57471e-05
1.57471e-05
1.57471e-05
1.57471e-05
1.57471e-05
1.57227e-05
1.57227e-05
1.57227e-05
1.57227e-05
1.57227e-05
1.57227e-05
1.56982e-05
1.56982e-05
1.56982e-05
1.57227e-05
1.57227e-05
1.57227e-05
1.57227e-05
1.57227e-05
1.56982e-05
1.56982e-05
1.57227e-05
1.57227e-05
1.56982e-05
1.57227e-05
1.56982e-05
1.56982e-05
1.56982e-05
1.56982e-05
1.56982e-05
1.56982e-05
1.56982e-05
1.56982e-05
1.56982e-05
1.56982e-05
1.56982e-05
1.56982e-05
1.56982e-05
1.56982e-05
1.56982e-05
1.56982e-05
1.56982e-05
1.56982e-05
1.56982e-05
1.56738e-05
1.56738e-05
1.56982e-05
1.56982e-05
1.56982e-05
1.56982e-05
1.56738e-05
1.56738e-05
1.56494e-05
1.56494e-05
1.56494e-05
1.56494e-05
1.56494e-05
1.56738e-05
1.56738e-05
1.56738e-05
1.56494e-05
1.56738e-05
1.56738e-05
1.56738e-05
1.56494e-05
1.56738e-05
1.56738e-05
1.56738e-05
1.56494e-05
1.56494e-05
1.56494e-05
1.56494e-05
1.56494e-05
1.56494e-05
1.56494e-05
1.56494e-05
1.56494e-05
1.56494e-05
1.56494e-05
1.56494e-05
1.56494e-05
1.56494e-05
1.56494e-05
1.56494e-05
1.56494e-05
1.56494e-05
1.56494e-05
1.56494e-05
1.56738e-05
1.56738e-05
1.56738e-05
1.56738e-05
1.56738e-05
1.56738e-05
1.56738e-05
1.56738e-05
1.56982e-05
1.56982e-05
1.56982e-05
1.56982e-05
1.56982e-05
1.56982e-05
1.56982e-05
1.56982e-05
1.57227e-05
1.57227e-05
1.57227e-05
1.57227e-05
1.57227e-05
1.57471e-05
1.57471e-05
1.57471e-05
1.57715e-05
1.57715e-05
1.57715e-05
1.57715e-05
1.57959e-05
1.57959e-05
1.57959e-05
1.57959e-05
1.57959e-05
1.58203e-05
1.58203e-05
1.58203e-05
1.58447e-05
1.58691e-05
1.58936e-05
1.58936e-05
1.58936e-05
1.5918e-05
1.5918e-05
1.59424e-05
1.59668e-05
1.59668e-05
1.59668e-05
1.59912e-05
1.59912e-05
1.60156e-05
1.60156e-05
1.60156e-05
1.604e-05
1.604e-05
1.60645e-05
1.60889e-05
1.60645e-05
1.60889e-05
1.61133e-05
1.61133e-05
1.61133e-05
1.61377e-05
1.61621e-05
1.61621e-05
1.61865e-05
1.62109e-05
1.62109e-05
1.62109e-05
1.62354e-05
1.62354e-05
1.62354e-05
1.62598e-05
1.62842e-05
1.62842e-05
1.62842e-05
1.63086e-05
1.63086e-05
1.63086e-05
1.6333e-05
1.6333e-05
1.6333e-05
1.6333e-05
1.63574e-05
1.63574e-05
1.63818e-05
1.63818e-05
1.63818e-05
1.63818e-05
1.63818e-05
1.63818e-05
1.63818e-05
1.63818e-05
1.64062e-05
1.64062e-05
1.64062e-05
1.64062e-05
1.64062e-05
1.64062e-05
1.64062e-05
1.64062e-05
1.63818e-05
1.63818e-05
1.64062e-05
1.64062e-05
1.64062e-05
1.64062e-05
1.64062e-05
1.64062e-05
1.63818e-05
1.63818e-05
1.64062e-05
1.63818e-05
1.63818e-05
1.63818e-05
1.63818e-05
1.63818e-05
1.63818e-05
1.63818e-05
1.63818e-05
1.63574e-05
1.63574e-05
1.63574e-05
1.63574e-05
1.63574e-05
1.6333e-05
1.6333e-05
1.6333e-05
1.6333e-05
1.6333e-05
1.6333e-05
1.6333e-05
1.6333e-05
1.6333e-05
1.6333e-05
1.6333e-05
1.63086e-05
1.63086e-05
1.63086e-05
1.63086e-05
1.63086e-05
1.62842e-05
1.62842e-05
1.62842e-05
1.62842e-05
1.62842e-05
1.62842e-05
1.62842e-05
1.62598e-05
1.62354e-05
1.62354e-05
1.62354e-05
1.62354e-05
1.62109e-05
1.62109e-05
1.62109e-05
1.62109e-05
1.62109e-05
1.62109e-05
1.61865e-05
1.61865e-05
1.61621e-05
1.61865e-05
1.61865e-05
1.61621e-05
1.61377e-05
1.61377e-05
1.61377e-05
1.61377e-05
1.61133e-05
1.61133e-05
1.61133e-05
1.61133e-05
1.60889e-05
1.61133e-05
1.60889e-05
1.60889e-05
1.60889e-05
1.60889e-05
1.60889e-05
1.60645e-05
1.60645e-05
1.60645e-05
1.60645e-05
1.604e-05
1.604e-05
1.604e-05
1.604e-05
1.60156e-05
1.60156e-05
1.60156e-05
1.59912e-05
1.59912e-05
1.59912e-05
1.59912e-05
1.59912e-05
1.59912e-05
1.59668e-05
1.59912e-05
1.59912e-05
1.59668e-05
1.59668e-05
1.59668e-05
1.59668e-05
1.59668e-05
1.59668e-05
1.59424e-05
1.59424e-05
1.59424e-05
1.59424e-05
1.59424e-05
1.59424e-05
1.5918e-05
1.5918e-05
1.5918e-05
1.5918e-05
1.5918e-05
1.5918e-05
1.5918e-05
1.5918e-05
1.58936e-05
1.58936e-05
1.58936e-05
1.58936e-05
1.58936e-05
1.58936e-05
1.58936e-05
1.58936e-05
1.58936e-05
1.58691e-05
1.58691e-05
1.58447e-05
1.58447e-05
1.58447e-05
1.58447e-05
1.58447e-05
1.58447e-05
1.58447e-05
1.58447e-05
1.58447e-05
1.58447e-05
1.58447e-05
1.58447e-05
1.58447e-05
1.58447e-05
1.58447e-05
1.58447e-05
1.58447e-05
1.58203e-05
1.58203e-05
1.58203e-05
1.58203e-05
1.58203e-05
1.57959e-05
1.57959e-05
1.57959e-05
1.57959e-05
1.57959e-05
1.57959e-05
1.57959e-05
1.57959e-05
1.57959e-05
1.57959e-05
1.57959e-05
1.57959e-05
1.58203e-05
1.57959e-05
1.57959e-05
1.58203e-05
1.57959e-05
1.58203e-05
1.58203e-05
1.58203e-05
1.58203e-05
1.58203e-05
1.58203e-05
1.58203e-05
1.58447e-05
1.58447e-05
1.58447e-05
1.58447e-05
1.58691e-05
1.58691e-05
1.58936e-05
1.58936e-05
1.58936e-05
1.5918e-05
1.5918e-05
1.5918e-05
1.59424e-05
1.59424e-05
1.59668e-05
1.59668e-05
1.59912e-05
1.59912e-05
1.60156e-05
1.60156e-05
1.60156e-05
1.604e-05
1.604e-05
1.604e-05
1.60645e-05
1.60645e-05
1.61133e-05
1.61133e-05
1.61133e-05
1.61621e-05
1.61865e-05
1.61865e-05
1.61865e-05
1.62109e-05
1.62354e-05
1.62354e-05
1.62354e-05
1.62598e-05
1.62842e-05
1.63086e-05
1.63086e-05
1.63086e-05
1.6333e-05
1.6333e-05
1.6333e-05
1.63574e-05
1.63574e-05
1.63574e-05
1.63818e-05
1.63818e-05
1.63818e-05
1.63818e-05
1.64062e-05
1.64062e-05
1.64062e-05
1.64062e-05
1.64062e-05
1.64307e-05
1.64307e-05
1.64307e-05
1.64307e-05
1.64307e-05
1.64551e-05
1.64551e-05
1.64307e-05
1.64307e-05
1.64307e-05
1.64307e-05
1.64307e-05
1.64307e-05
1.64307e-05
1.64307e-05
1.64062e-05
1.64062e-05
1.64062e-05
1.64062e-05
1.63818e-05
1.64062e-05
1.63818e-05
1.63818e-05
1.63574e-05
1.63818e-05
1.63574e-05
1.63574e-05
1.63574e-05
1.6333e-05
1.6333e-05
1.6333e-05
1.63086e-05
1.63086e-05
1.63086e-05
1.62842e-05
1.62354e-05
1.62354e-05
1.62598e-05
1.62354e-05
1.62109e-05
1.62354e-05
1.62354e-05
1.62109e-05
1.62109e-05
1.62109e-05
1.61865e-05
1.61865e-05
1.61621e-05
1.61621e-05
1.61621e-05
1.61377e-05
1.61133e-05
1.61133e-05
1.61133e-05
1.61133e-05
1.60889e-05
1.60889e-05
1.60889e-05
1.60645e-05
1.60645e-05
1.60645e-05
1.604e-05
1.60156e-05
1.60156e-05
1.60156e-05
1.60156e-05
1.60156e-05
1.60156e-05
1.59912e-05
1.59912e-05
1.59912e-05
1.59912e-05
1.59912e-05
1.59668e-05
1.59668e-05
1.59668e-05
1.59668e-05
1.59424e-05
1.59424e-05
1.59424e-05
1.59424e-05
1.5918e-05
1.5918e-05
1.5918e-05
1.5918e-05
1.5918e-05
1.5918e-05
1.5918e-05
1.5918e-05
1.58936e-05
1.58936e-05
1.58936e-05
1.58936e-05
1.58691e-05
1.58936e-05
1.58936e-05
1.58936e-05
1.58936e-05
1.58691e-05
1.58691e-05
1.58691e-05
1.58691e-05
1.58447e-05
1.58203e-05
1.58203e-05
1.58203e-05
1.58203e-05
1.58203e-05
1.58203e-05
1.57959e-05
1.58203e-05
1.57959e-05
1.57959e-05
1.57959e-05
1.57959e-05
1.57959e-05
1.57959e-05
1.57959e-05
1.57959e-05
1.57959e-05
1.57959e-05
1.57959e-05
1.57959e-05
1.57959e-05
1.57959e-05
1.57959e-05
1.57715e-05
1.57715e-05
1.57715e-05
1.57715e-05
1.57715e-05
1.57471e-05
1.57471e-05
1.57471e-05
1.57471e-05
1.57471e-05
1.57471e-05
1.57471e-05
1.57471e-05
1.57471e-05
1.57471e-05
1.57471e-05
1.57471e-05
1.57227e-05
1.57471e-05
1.57471e-05
1.57227e-05
1.57227e-05
1.57227e-05
1.57471e-05
1.57227e-05
1.57227e-05
1.57227e-05
1.57227e-05
1.57227e-05
1.56982e-05
1.57227e-05
1.57227e-05
1.56982e-05
1.56982e-05
1.56982e-05
1.56982e-05
1.56982e-05
1.56982e-05
1.56982e-05
1.56982e-05
1.56982e-05
1.56982e-05
1.56982e-05
1.56982e-05
1.56738e-05
1.56738e-05
1.56494e-05
1.56738e-05
1.56738e-05
1.56738e-05
1.56738e-05
1.56982e-05
1.56738e-05
1.56738e-05
1.56738e-05
1.56738e-05
1.56738e-05
1.56738e-05
1.56738e-05
1.56982e-05
1.56738e-05
1.56738e-05
1.56738e-05
1.56738e-05
1.56738e-05
1.56738e-05
1.56738e-05
1.56738e-05
1.56494e-05
1.56494e-05
1.56738e-05
1.56494e-05
1.56494e-05
1.56494e-05
1.56494e-05
1.56738e-05
1.56738e-05
1.56494e-05
1.56738e-05
1.56738e-05
1.56738e-05
1.56494e-05
1.56738e-05
1.56738e-05
1.56738e-05
1.56738e-05
1.56738e-05
1.56738e-05
1.56738e-05
1.56494e-05
1.56738e-05
1.56738e-05
1.56738e-05
1.56494e-05
1.56738e-05
1.56738e-05
1.56738e-05
1.56494e-05
1.56738e-05
1.56738e-05
1.56738e-05
1.56494e-05
1.56738e-05
1.56738e-05
1.56738e-05
1.56738e-05
1.56738e-05
1.56738e-05
1.56738e-05
1.56738e-05
1.56738e-05
1.56738e-05
1.56738e-05
1.56494e-05
1.56494e-05
1.56494e-05
1.56494e-05
1.56738e-05
1.56738e-05
1.56738e-05
1.56494e-05
1.56738e-05
1.56738e-05
1.56738e-05
1.56738e-05
1.56738e-05
1.56738e-05
1.56738e-05
1.56494e-05
1.56738e-05
1.56738e-05
1.56738e-05
1.56494e-05
1.56738e-05
1.56738e-05
1.56738e-05
1.56494e-05
1.56738e-05
1.56738e-05
1.56494e-05
1.56494e-05
1.56494e-05
1.56494e-05
1.56738e-05
1.56738e-05
1.56738e-05
1.56738e-05
1.56738e-05
1.56738e-05
1.56738e-05
1.56738e-05
1.56982e-05
1.56738e-05
1.56738e-05
1.56738e-05
1.56982e-05
1.56738e-05
1.56982e-05
1.56982e-05
1.56982e-05
1.56738e-05
1.56982e-05
1.56982e-05
1.56982e-05
1.56738e-05
1.56982e-05
1.56982e-05
1.56982e-05
1.56738e-05
1.56738e-05
1.56982e-05
1.56982e-05
1.56982e-05
1.56982e-05
1.56982e-05
1.56982e-05
1.56738e-05
1.56982e-05
1.56982e-05
1.56982e-05
1.56738e-05
1.56738e-05
1.56494e-05
1.56494e-05
1.56738e-05
1.56738e-05
1.56738e-05
1.56982e-05
1.56738e-05
1.56738e-05
1.56982e-05
1.56982e-05
1.56738e-05
1.56982e-05
1.56982e-05
1.56982e-05
1.56738e-05
1.56982e-05
1.56982e-05
1.56982e-05
1.56738e-05
1.56982e-05
1.56982e-05
1.56982e-05
1.56738e-05
1.56982e-05
1.56982e-05
1.56738e-05
1.56738e-05
1.56738e-05
1.56738e-05
1.56738e-05
1.56738e-05
1.56738e-05
1.56982e-05
1.56982e-05
1.56738e-05
1.56982e-05
1.56982e-05
1.56982e-05
1.56982e-05
1.56982e-05
1.56982e-05
1.56982e-05
1.56738e-05
1.56982e-05
1.56982e-05
1.56982e-05
1.56982e-05
1.56738e-05
1.56982e-05
1.56982e-05
1.56982e-05
1.56738e-05
1.56738e-05
1.56982e-05
1.56982e-05
1.56982e-05
1.56738e-05
1.56982e-05
1.56738e-05
1.56738e-05
1.56982e-05
1.56982e-05
1.56738e-05
1.56738e-05
1.56738e-05
1.56982e-05
1.56982e-05
1.56738e-05
1.56494e-05
1.56494e-05
1.56738e-05
1.56494e-05
1.56738e-05
1.56738e-05
1.56738e-05
1.56738e-05
1.56738e-05
1.56738e-05
1.56738e-05
1.56738e-05
1.56738e-05
1.56738e-05
1.56738e-05
1.56738e-05
1.56738e-05
1.56738e-05
1.56738e-05
1.56494e-05
1.56738e-05
1.56738e-05
1.56738e-05
1.56494e-05
1.56494e-05
1.56494e-05
1.56494e-05
1.56494e-05
1.56494e-05
1.56494e-05
1.56494e-05
1.56494e-05
1.56738e-05
1.56738e-05
1.56738e-05
1.56738e-05
1.56738e-05
1.56738e-05
1.56738e-05
1.56494e-05
1.56494e-05
1.56738e-05
1.56738e-05
1.56738e-05
1.56738e-05
1.56738e-05
1.56738e-05
1.56494e-05
1.56738e-05
1.56738e-05
1.56494e-05
1.56494e-05
1.56494e-05
1.56738e-05
1.56738e-05
1.56738e-05
1.56494e-05
1.56494e-05
1.56494e-05
1.56494e-05
1.56494e-05
1.56738e-05
1.56738e-05
1.56494e-05
1.56738e-05
1.56738e-05
1.56494e-05
1.5625e-05
1.56494e-05
1.56494e-05
1.56494e-05
1.56494e-05
1.56494e-05
1.56494e-05
1.56494e-05
1.56494e-05
1.56494e-05
1.56494e-05
1.56494e-05
1.56494e-05
1.56494e-05
1.56494e-05
1.56494e-05
1.56494e-05
1.56494e-05
1.56494e-05
1.56494e-05
1.56494e-05
1.56494e-05
1.56494e-05
1.56494e-05
1.56494e-05
1.56494e-05
1.56494e-05
1.56494e-05
1.56494e-05
1.56494e-05
1.56494e-05
1.56494e-05
1.56494e-05
1.56494e-05
1.56494e-05
1.56494e-05
1.56494e-05
1.56494e-05
1.56494e-05
1.56738e-05
1.56494e-05
1.56738e-05
1.56738e-05
1.56738e-05
1.56494e-05
1.56494e-05
1.56494e-05
1.56494e-05
1.56494e-05
1.56738e-05
1.56738e-05
1.56738e-05
1.56494e-05
1.56738e-05
1.56494e-05
1.56738e-05
1.56494e-05
1.56738e-05
1.56738e-05
1.56738e-05
1.56494e-05
1.56738e-05
1.56738e-05
1.56494e-05
1.56494e-05
1.56494e-05
1.56494e-05
1.56494e-05
1.56494e-05
1.56494e-05
1.56494e-05
1.56494e-05
1.56494e-05
1.56494e-05
1.56494e-05
1.56494e-05
1.56494e-05
1.56494e-05
1.56738e-05
1.56738e-05
1.56494e-05
1.56494e-05
1.56738e-05
1.56494e-05
1.56494e-05
1.56494e-05
1.56494e-05
1.56494e-05
1.5625e-05
1.56494e-05
1.56494e-05
1.56494e-05
1.5625e-05
1.56494e-05
1.56494e-05
1.56494e-05
1.5625e-05
1.56494e-05
1.56494e-05
1.56494e-05
1.56494e-05
1.56494e-05
1.56494e-05
1.56494e-05
1.56494e-05
1.56494e-05
1.56494e-05
1.56494e-05
1.56494e-05
1.56494e-05
1.56494e-05
1.56738e-05
1.56494e-05
1.56494e-05
1.56738e-05
1.56494e-05
1.56494e-05
1.56494e-05
1.56494e-05
1.56494e-05
1.56494e-05
1.56494e-05
1.56494e-05
1.56494e-05
1.56494e-05
1.56494e-05
1.56494e-05
1.56494e-05
1.56494e-05
1.56494e-05
1.56494e-05
1.5625e-05
1.5625e-05
1.56494e-05
1.56494e-05
1.56494e-05
1.5625e-05
1.56494e-05
1.56494e-05
1.56494e-05
1.56494e-05
1.56494e-05
1.56494e-05
1.56494e-05
1.56494e-05
1.56494e-05
1.56494e-05
1.56494e-05
1.5625e-05
1.56494e-05
1.56494e-05
1.56494e-05
1.56494e-05
1.56494e-05
1.56494e-05
1.56494e-05
1.5625e-05
1.5625e-05
1.56494e-05
1.56494e-05
1.56494e-05
1.56494e-05
1.56494e-05
1.56494e-05
1.56494e-05
1.56494e-05
1.56494e-05
1.56494e-05
1.56494e-05
1.56494e-05
1.56494e-05
1.56494e-05
1.56494e-05
1.56494e-05
1.56494e-05
1.56494e-05
1.56494e-05
1.56494e-05
1.56494e-05
1.56494e-05
1.56494e-05
1.56494e-05
1.56494e-05
1.5625e-05
1.56494e-05
1.56494e-05
1.56494e-05
1.5625e-05
1.56494e-05
1.56494e-05
1.56494e-05
1.5625e-05
1.56494e-05
1.56494e-05
1.56494e-05
1.5625e-05
1.5625e-05
1.5625e-05
1.5625e-05
1.5625e-05
1.5625e-05
1.56494e-05
1.5625e-05
1.5625e-05
1.56494e-05
1.56494e-05
1.5625e-05
1.5625e-05
1.5625e-05
1.5625e-05
1.5625e-05
1.5625e-05
1.5625e-05
1.5625e-05
1.5625e-05
1.56006e-05
1.5625e-05
1.5625e-05
1.56006e-05
1.56006e-05
1.56006e-05
1.56006e-05
1.56006e-05
1.56006e-05
1.56006e-05
1.56006e-05
1.56006e-05
1.56006e-05
1.56006e-05
1.5625e-05
1.5625e-05
1.56006e-05
1.5625e-05
1.56006e-05
1.5625e-05
1.56006e-05
1.56006e-05
1.5625e-05
1.56006e-05
1.56006e-05
1.56006e-05
1.56006e-05
1.5625e-05
1.56006e-05
1.56006e-05
1.56006e-05
1.5625e-05
1.56006e-05
1.56006e-05
1.56006e-05
1.56006e-05
1.56006e-05
1.56006e-05
1.56006e-05
1.56006e-05
1.56006e-05
1.56006e-05
1.56006e-05
1.56006e-05
1.55762e-05
1.55762e-05
1.55762e-05
1.56006e-05
1.55762e-05
1.56006e-05
1.56006e-05
1.56006e-05
1.55762e-05
1.56006e-05
1.56006e-05
1.56006e-05
1.55762e-05
1.56006e-05
1.56006e-05
1.56006e-05
1.55762e-05
1.56006e-05
1.56006e-05
1.56006e-05
1.55762e-05
1.55762e-05
1.55762e-05
1.55762e-05
1.55762e-05
1.55762e-05
1.55762e-05
1.55762e-05
1.55518e-05
1.55762e-05
1.55762e-05
1.55762e-05
1.55762e-05
1.55762e-05
1.55762e-05
1.55762e-05
1.55762e-05
1.55762e-05
1.55762e-05
1.55762e-05
1.55762e-05
1.55762e-05
1.55762e-05
1.55762e-05
1.55762e-05
1.55762e-05
1.55762e-05
1.55762e-05
1.55762e-05
1.55762e-05
1.55762e-05
1.55762e-05
1.55518e-05
1.55762e-05
1.55762e-05
1.55518e-05
1.55518e-05
1.55518e-05
1.55518e-05
1.55762e-05
1.55518e-05
1.55518e-05
1.55518e-05
1.55518e-05
1.55273e-05
1.55518e-05
1.55273e-05
1.55273e-05
1.55273e-05
1.55273e-05
1.55273e-05
1.55273e-05
1.55273e-05
1.55273e-05
1.55273e-05
1.55273e-05
1.55273e-05
1.55273e-05
1.55273e-05
1.55273e-05
1.55273e-05
1.55273e-05
1.55273e-05
1.55273e-05
1.55273e-05
1.55273e-05
1.55273e-05
1.55273e-05
1.55029e-05
1.55273e-05
1.55273e-05
1.55029e-05
1.55029e-05
1.55273e-05
1.55029e-05
1.55029e-05
1.55029e-05
1.55029e-05
1.55029e-05
1.55029e-05
1.55029e-05
1.55029e-05
1.55029e-05
1.55029e-05
1.55029e-05
1.55029e-05
1.55273e-05
1.55273e-05
1.55029e-05
1.55029e-05
1.55029e-05
1.55029e-05
1.55029e-05
1.55029e-05
1.55029e-05
1.55029e-05
1.55029e-05
1.55029e-05
1.55029e-05
1.55029e-05
1.54785e-05
1.55029e-05
1.55029e-05
1.55029e-05
1.54785e-05
1.55029e-05
1.55029e-05
1.55029e-05
1.54785e-05
1.55029e-05
1.55029e-05
1.54785e-05
1.54541e-05
1.54541e-05
1.54785e-05
1.54785e-05
1.54541e-05
1.54785e-05
1.54785e-05
1.54785e-05
1.54541e-05
1.54785e-05
1.54785e-05
1.54785e-05
1.54541e-05
1.54541e-05
1.54785e-05
1.54785e-05
1.54541e-05
1.54541e-05
1.54541e-05
1.54541e-05
1.54541e-05
1.54541e-05
1.54541e-05
1.54297e-05
1.54541e-05
1.54541e-05
1.54541e-05
1.54297e-05
1.54297e-05
1.54541e-05
1.54297e-05
1.54541e-05
1.54541e-05
1.54541e-05
1.54541e-05
1.54541e-05
1.54541e-05
1.54297e-05
1.54541e-05
1.54541e-05
1.54541e-05
1.54297e-05
1.54541e-05
1.54297e-05
1.54297e-05
1.54297e-05
1.54297e-05
1.54297e-05
1.54297e-05
1.54297e-05
1.54297e-05
1.54297e-05
1.54297e-05
1.54297e-05
1.54297e-05
1.54297e-05
1.54297e-05
1.54297e-05
1.54297e-05
1.54297e-05
1.54297e-05
1.54053e-05
1.54297e-05
1.54053e-05
1.54053e-05
1.53809e-05
1.54053e-05
1.54053e-05
1.54053e-05
1.54053e-05
1.54297e-05
1.54297e-05
1.54297e-05
1.54053e-05
1.54297e-05
1.54297e-05
1.54297e-05
1.54053e-05
1.54053e-05
1.54297e-05
1.54297e-05
1.54297e-05
1.54297e-05
1.54297e-05
1.54297e-05
1.54053e-05
1.54297e-05
1.54297e-05
1.54053e-05
1.54053e-05
1.54053e-05
1.54297e-05
1.54053e-05
1.54053e-05
1.54053e-05
1.54297e-05
1.54297e-05
1.54297e-05
1.54297e-05
1.54297e-05
1.54541e-05
1.54297e-05
1.54541e-05
1.54541e-05
1.54541e-05
1.54297e-05
1.54541e-05
1.54541e-05
1.54785e-05
1.54541e-05
1.54785e-05
1.54785e-05
1.54785e-05
1.54785e-05
1.55029e-05
1.55029e-05
1.55029e-05
1.55029e-05
1.55273e-05
1.55273e-05
1.55273e-05
1.55029e-05
1.55273e-05
1.55273e-05
1.55273e-05
1.55273e-05
1.55518e-05
1.55518e-05
1.55762e-05
1.55518e-05
1.55762e-05
1.55762e-05
1.55762e-05
1.55518e-05
1.55762e-05
1.55762e-05
1.56006e-05
1.55762e-05
1.56006e-05
1.5625e-05
1.5625e-05
1.5625e-05
1.5625e-05
1.56494e-05
1.56494e-05
1.5625e-05
1.56494e-05
1.56494e-05
1.56494e-05
1.56494e-05
1.56494e-05
1.56738e-05
1.56738e-05
1.56494e-05
1.56738e-05
1.56738e-05
1.56982e-05
1.56738e-05
1.56982e-05
1.56982e-05
1.56982e-05
1.56982e-05
1.56982e-05
1.56982e-05
1.57227e-05
1.57227e-05
1.57227e-05
1.57227e-05
1.57227e-05
1.57227e-05
1.57227e-05
1.57471e-05
1.57227e-05
1.57471e-05
1.57471e-05
1.57471e-05
1.57227e-05
1.57471e-05
1.57471e-05
1.57471e-05
1.57471e-05
1.57471e-05
1.57715e-05
1.57471e-05
1.57471e-05
1.57471e-05
1.57715e-05
1.57471e-05
1.57471e-05
1.57471e-05
1.57715e-05
1.57471e-05
1.57471e-05
1.57471e-05
1.57715e-05
1.57715e-05
1.57471e-05
1.57471e-05
1.57471e-05
1.57715e-05
1.57471e-05
1.57471e-05
1.57227e-05
1.57227e-05
1.57227e-05
1.57471e-05
1.57471e-05
1.57471e-05
1.57227e-05
1.57471e-05
1.57471e-05
1.57471e-05
1.57227e-05
1.57471e-05
1.57471e-05
1.57471e-05
1.57227e-05
1.57227e-05
1.57227e-05
1.57227e-05
1.57227e-05
1.57227e-05
1.57227e-05
1.57227e-05
1.57227e-05
1.57227e-05
1.56982e-05
1.56982e-05
1.56982e-05
1.56982e-05
1.56982e-05
1.56982e-05
1.56738e-05
1.56982e-05
1.56982e-05
1.56982e-05
1.56982e-05
1.56982e-05
1.56982e-05
1.56982e-05
1.56738e-05
1.56982e-05
1.56982e-05
1.56982e-05
1.56738e-05
1.56982e-05
1.56982e-05
1.56738e-05
1.56738e-05
1.56738e-05
1.56738e-05
1.56738e-05
1.56738e-05
1.56738e-05
1.56738e-05
1.56738e-05
1.56738e-05
1.56738e-05
1.56494e-05
1.56738e-05
1.56494e-05
1.56494e-05
1.56494e-05
1.56494e-05
1.56494e-05
1.56494e-05
1.56494e-05
1.56494e-05
1.56006e-05
1.5625e-05
1.5625e-05
1.5625e-05
1.5625e-05
1.5625e-05
1.5625e-05
1.5625e-05
1.56006e-05
1.5625e-05
1.5625e-05
1.5625e-05
1.56006e-05
1.56006e-05
1.56006e-05
1.56006e-05
1.56006e-05
1.56006e-05
1.56006e-05
1.56006e-05
1.56006e-05
1.55762e-05
1.55762e-05
1.55762e-05
1.55762e-05
1.55518e-05
1.55518e-05
1.55762e-05
1.55518e-05
1.55518e-05
1.55518e-05
1.55518e-05
1.55273e-05
1.55518e-05
1.55518e-05
1.55518e-05
1.55273e-05
1.55273e-05
1.55518e-05
1.55273e-05
1.55273e-05
1.55273e-05
1.55273e-05
1.55273e-05
1.55273e-05
1.55273e-05
1.55273e-05
1.55273e-05
1.55029e-05
1.55029e-05
1.55029e-05
1.55029e-05
1.55029e-05
1.55029e-05
1.55029e-05
1.55029e-05
1.54785e-05
1.55029e-05
1.54785e-05
1.54785e-05
1.54785e-05
1.54785e-05
1.54785e-05
1.54785e-05
1.54541e-05
1.54785e-05
1.54785e-05
1.54785e-05
1.54297e-05
1.54297e-05
1.54541e-05
1.54541e-05
1.54297e-05
1.54541e-05
1.54541e-05
1.54541e-05
1.54297e-05
1.54297e-05
1.54541e-05
1.54297e-05
1.54297e-05
1.54541e-05
1.54297e-05
1.54297e-05
1.54297e-05
1.54297e-05
1.54297e-05
1.54297e-05
1.54297e-05
1.54297e-05
1.54053e-05
1.54053e-05
1.54053e-05
1.54053e-05
1.54053e-05
1.54053e-05
1.53809e-05
1.53809e-05
1.54053e-05
1.54053e-05
1.54053e-05
1.54053e-05
1.54053e-05
1.54053e-05
1.53809e-05
1.54053e-05
1.54053e-05
1.54053e-05
1.53809e-05
1.54053e-05
1.54053e-05
1.54053e-05
1.53809e-05
1.54053e-05
1.54053e-05
1.54053e-05
1.53809e-05
1.54053e-05
1.54053e-05
1.54053e-05
1.53809e-05
1.54053e-05
1.53809e-05
1.54053e-05
1.53809e-05
1.54053e-05
1.54053e-05
1.54053e-05
1.53809e-05
1.54053e-05
1.54053e-05
1.54053e-05
1.54053e-05
1.54053e-05
1.53809e-05
1.53809e-05
1.53809e-05
1.54053e-05
1.54053e-05
1.54053e-05
1.54297e-05
1.54053e-05
1.54297e-05
1.54297e-05
1.54053e-05
1.54297e-05
1.54297e-05
1.54297e-05
1.54297e-05
1.54297e-05
1.54541e-05
1.54541e-05
1.54541e-05
1.54541e-05
1.54541e-05
1.54297e-05
1.54541e-05
1.54541e-05
1.54541e-05
1.54541e-05
1.54541e-05
1.54541e-05
1.54785e-05
1.54541e-05
1.54785e-05
1.54785e-05
1.54785e-05
1.54785e-05
1.55029e-05
1.55029e-05
1.55029e-05
1.54785e-05
1.55029e-05
1.55029e-05
1.55029e-05
1.55029e-05
1.55029e-05
1.55029e-05
1.55029e-05
1.55029e-05
1.55273e-05
1.55273e-05
1.55273e-05
1.55273e-05
1.55273e-05
1.55273e-05
1.55273e-05
1.55273e-05
1.55273e-05
1.55273e-05
1.55273e-05
1.55273e-05
1.55273e-05
1.55273e-05
1.55273e-05
1.55273e-05
1.55273e-05
1.55273e-05
1.55273e-05
1.55273e-05
1.55273e-05
1.55273e-05
1.55273e-05
1.55273e-05
1.55273e-05
1.55273e-05
1.55518e-05
1.55273e-05
1.55518e-05
1.55518e-05
1.55518e-05
1.55273e-05
1.55518e-05
1.55518e-05
1.55518e-05
1.55273e-05
1.55273e-05
1.55273e-05
1.55518e-05
1.55273e-05
1.55273e-05
1.55273e-05
1.55273e-05
1.55273e-05
1.55273e-05
1.55273e-05
1.55273e-05
1.55273e-05
1.55273e-05
1.55518e-05
1.55518e-05
1.55273e-05
1.55518e-05
1.55518e-05
1.55518e-05
1.55273e-05
1.55518e-05
1.55762e-05
1.55762e-05
1.55518e-05
1.55762e-05
1.55762e-05
1.55762e-05
1.55762e-05
1.55762e-05
1.56006e-05
1.56006e-05
1.55762e-05
1.56006e-05
1.56006e-05
1.56006e-05
1.5625e-05
1.5625e-05
1.5625e-05
1.5625e-05
1.5625e-05
1.56494e-05
1.56494e-05
1.56494e-05
1.5625e-05
1.56494e-05
1.56494e-05
1.56738e-05
1.56738e-05
1.56982e-05
1.56982e-05
1.56982e-05
1.56982e-05
1.57227e-05
1.57227e-05
1.57227e-05
1.57227e-05
1.57227e-05
1.57471e-05
1.57471e-05
1.57471e-05
1.57715e-05
1.57471e-05
1.57715e-05
1.57715e-05
1.57715e-05
1.57715e-05
1.57959e-05
1.57959e-05
1.57715e-05
1.57959e-05
1.57959e-05
1.57959e-05
1.57959e-05
1.58203e-05
1.58203e-05
1.58203e-05
1.58203e-05
1.58203e-05
1.58203e-05
1.58447e-05
1.58203e-05
1.58447e-05
1.58447e-05
1.58447e-05
1.58447e-05
1.58691e-05
1.58447e-05
1.58447e-05
1.58447e-05
1.58691e-05
1.58691e-05
1.58691e-05
1.58447e-05
1.58691e-05
1.58691e-05
1.58691e-05
1.58447e-05
1.58691e-05
1.58691e-05
1.58691e-05
1.58691e-05
1.58691e-05
1.58691e-05
1.58691e-05
1.58691e-05
1.58691e-05
1.58691e-05
1.58447e-05
1.58203e-05
1.58447e-05
1.58447e-05
1.58447e-05
1.58447e-05
1.58447e-05
1.58447e-05
1.58447e-05
1.58203e-05
1.58447e-05
1.58447e-05
1.58447e-05
1.58203e-05
1.58447e-05
1.58447e-05
1.58447e-05
1.57959e-05
1.58203e-05
1.58203e-05
1.58203e-05
1.57959e-05
1.58203e-05
1.57959e-05
1.57959e-05
1.57959e-05
1.57959e-05
1.57959e-05
1.57959e-05
1.57959e-05
1.57959e-05
1.57959e-05
1.57959e-05
1.57959e-05
1.57959e-05
1.57959e-05
1.57715e-05
1.57715e-05
1.57959e-05
1.57715e-05
1.57715e-05
1.57715e-05
1.57715e-05
1.57715e-05
1.57715e-05
1.57471e-05
1.57715e-05
1.57471e-05
1.57471e-05
1.57227e-05
1.57471e-05
1.57471e-05
1.57227e-05
1.57227e-05
1.57227e-05
1.57227e-05
1.57227e-05
1.56982e-05
1.57227e-05
1.57227e-05
1.56982e-05
1.56982e-05
1.56982e-05
1.56738e-05
1.56738e-05
1.56494e-05
1.56738e-05
1.56738e-05
1.56738e-05
1.56494e-05
1.56738e-05
1.56738e-05
1.56738e-05
1.56494e-05
1.56494e-05
1.56494e-05
1.56494e-05
1.5625e-05
1.56494e-05
1.56494e-05
1.5625e-05
1.5625e-05
1.5625e-05
1.5625e-05
1.5625e-05
1.56006e-05
1.56006e-05
1.56006e-05
1.56006e-05
1.56006e-05
1.56006e-05
1.55762e-05
1.55762e-05
1.55762e-05
1.55762e-05
1.55762e-05
1.55762e-05
1.55762e-05
1.55762e-05
1.55762e-05
1.55762e-05
1.55518e-05
1.55762e-05
1.55518e-05
1.55518e-05
1.55273e-05
1.55518e-05
1.55518e-05
1.55273e-05
1.55273e-05
1.55273e-05
1.55273e-05
1.55273e-05
1.55273e-05
1.55273e-05
1.55273e-05
1.55273e-05
1.55029e-05
1.55029e-05
1.55029e-05
1.55029e-05
1.54785e-05
1.55029e-05
1.55029e-05
1.55029e-05
1.54541e-05
1.54541e-05
1.54541e-05
1.54541e-05
1.54297e-05
1.54541e-05
1.54541e-05
1.54541e-05
1.54541e-05
1.54541e-05
1.54541e-05
1.54541e-05
1.54297e-05
1.54541e-05
1.54297e-05
1.54297e-05
1.54297e-05
1.54297e-05
1.54297e-05
1.54297e-05
1.54297e-05
1.54053e-05
1.54297e-05
1.54297e-05
1.54053e-05
1.54053e-05
1.54053e-05
1.54053e-05
1.53809e-05
1.54053e-05
1.54053e-05
1.54053e-05
1.53809e-05
1.54053e-05
1.54053e-05
1.54053e-05
1.53809e-05
1.53809e-05
1.53809e-05
1.54053e-05
1.53809e-05
1.53809e-05
1.53809e-05
1.53809e-05
1.53564e-05
1.53809e-05
1.53809e-05
1.53809e-05
1.53564e-05
1.53809e-05
1.53809e-05
1.53809e-05
1.53564e-05
1.53564e-05
1.53564e-05
1.53564e-05
1.5332e-05
1.53564e-05
1.53564e-05
1.53564e-05
1.5332e-05
1.53564e-05
1.53564e-05
1.5332e-05
1.53076e-05
1.53076e-05
1.53076e-05
1.53076e-05
1.53076e-05
1.5332e-05
1.5332e-05
1.5332e-05
1.53076e-05
1.53076e-05
1.5332e-05
1.53076e-05
1.53076e-05
1.5332e-05
1.53076e-05
1.53076e-05
1.53076e-05
1.53076e-05
1.53076e-05
1.53076e-05
1.53076e-05
1.53076e-05
1.53076e-05
1.53076e-05
1.52832e-05
1.53076e-05
1.52832e-05
1.52832e-05
1.52832e-05
1.53076e-05
1.53076e-05
1.53076e-05
1.52832e-05
1.53076e-05
1.53076e-05
1.53076e-05
1.52832e-05
1.52832e-05
1.53076e-05
1.53076e-05
1.53076e-05
1.53076e-05
1.53076e-05
1.53076e-05
1.53076e-05
1.53076e-05
1.53076e-05
1.53076e-05
1.53076e-05
1.53076e-05
1.53076e-05
1.52832e-05
1.53076e-05
1.53076e-05
1.53076e-05
1.53076e-05
1.53076e-05
1.53076e-05
1.53076e-05
1.53076e-05
1.53076e-05
1.53076e-05
1.53076e-05
1.52832e-05
1.53076e-05
1.53076e-05
1.53076e-05
1.53076e-05
1.53076e-05
1.53076e-05
1.5332e-05
1.53076e-05
1.5332e-05
1.5332e-05
1.5332e-05
1.5332e-05
1.5332e-05
1.5332e-05
1.5332e-05
1.5332e-05
1.5332e-05
1.5332e-05
1.5332e-05
1.5332e-05
1.5332e-05
1.5332e-05
1.5332e-05
1.5332e-05
1.5332e-05
1.5332e-05
1.5332e-05
1.5332e-05
1.5332e-05
1.5332e-05
1.5332e-05
1.5332e-05
1.53564e-05
1.53564e-05
1.53564e-05
1.5332e-05
1.53564e-05
1.53564e-05
1.53564e-05
1.53564e-05
1.53564e-05
1.53564e-05
1.53564e-05
1.53564e-05
1.53564e-05
1.53564e-05
1.53564e-05
1.5332e-05
1.53564e-05
1.53564e-05
1.53564e-05
1.53564e-05
1.53564e-05
1.53564e-05
1.53564e-05
1.53564e-05
1.53564e-05
1.53564e-05
1.53564e-05
1.53564e-05
1.5332e-05
1.5332e-05
1.5332e-05
1.5332e-05
1.5332e-05
1.5332e-05
1.5332e-05
1.5332e-05
1.53564e-05
1.53564e-05
1.53564e-05
1.5332e-05
1.53564e-05
1.53564e-05
1.53564e-05
1.5332e-05
1.53564e-05
1.5332e-05
1.5332e-05
1.5332e-05
1.5332e-05
1.5332e-05
1.5332e-05
1.5332e-05
1.5332e-05
1.53076e-05
1.5332e-05
1.53076e-05
1.53076e-05
1.53076e-05
1.53076e-05
1.53076e-05
1.53076e-05
1.53076e-05
1.53076e-05
1.5332e-05
1.53076e-05
1.53076e-05
1.53076e-05
1.53076e-05
1.53076e-05
1.53076e-05
1.53076e-05
1.53076e-05
1.53076e-05
1.53076e-05
1.53076e-05
1.53076e-05
1.53076e-05
1.53076e-05
1.53076e-05
1.53076e-05
1.52832e-05
1.53076e-05
1.53076e-05
1.53076e-05
1.52832e-05
1.53076e-05
1.53076e-05
1.53076e-05
1.52832e-05
1.53076e-05
1.53076e-05
1.53076e-05
1.52832e-05
1.52832e-05
1.52588e-05
1.52588e-05
1.52588e-05
1.52832e-05
1.52832e-05
1.52832e-05
1.52588e-05
1.52832e-05
1.52832e-05
1.52832e-05
1.52588e-05
1.52832e-05
1.52832e-05
1.52832e-05
1.52832e-05
1.52832e-05
1.52832e-05
1.52832e-05
1.52832e-05
1.52832e-05
1.52832e-05
1.52832e-05
1.52588e-05
1.52832e-05
1.52832e-05
1.52832e-05
1.52588e-05
1.52832e-05
1.52832e-05
1.52832e-05
1.52588e-05
1.52832e-05
1.52832e-05
1.53076e-05
1.52832e-05
1.53076e-05
1.53076e-05
1.53076e-05
1.53076e-05
1.53076e-05
1.53076e-05
1.53076e-05
1.53076e-05
1.53076e-05
1.53076e-05
1.53076e-05
1.53076e-05
1.5332e-05
1.53076e-05
1.5332e-05
1.53076e-05
1.5332e-05
1.5332e-05
1.5332e-05
1.53076e-05
1.5332e-05
1.5332e-05
1.5332e-05
1.5332e-05
1.5332e-05
1.5332e-05
1.5332e-05
1.5332e-05
1.53564e-05
1.53564e-05
1.53564e-05
1.53076e-05
1.5332e-05
1.5332e-05
1.5332e-05
1.5332e-05
1.53564e-05
1.53564e-05
1.53564e-05
1.5332e-05
1.5332e-05
1.53564e-05
1.53564e-05
1.53564e-05
1.53564e-05
1.53564e-05
1.53809e-05
1.53564e-05
1.53564e-05
1.53564e-05
1.53564e-05
1.53564e-05
1.53809e-05
1.53564e-05
1.53564e-05
1.53564e-05
1.53564e-05
1.53564e-05
1.53564e-05
1.53564e-05
1.53809e-05
1.53809e-05
1.53564e-05
1.53564e-05
1.53809e-05
1.53809e-05
1.53809e-05
1.53564e-05
1.53809e-05
1.53809e-05
1.53809e-05
1.53564e-05
1.53809e-05
1.53809e-05
1.53809e-05
1.53564e-05
1.53809e-05
1.53809e-05
1.53809e-05
1.53564e-05
1.53809e-05
1.53809e-05
1.53809e-05
1.53564e-05
1.53809e-05
1.53809e-05
1.53809e-05
1.53564e-05
1.53564e-05
1.53809e-05
1.53809e-05
1.53564e-05
1.53809e-05
1.53564e-05
1.53564e-05
1.53564e-05
1.53809e-05
1.53809e-05
1.53564e-05
1.5332e-05
1.5332e-05
1.53564e-05
1.53564e-05
1.5332e-05
1.53564e-05
1.53564e-05
1.53564e-05
1.53564e-05
1.53809e-05
1.53809e-05
1.53809e-05
1.53809e-05
1.53809e-05
1.53809e-05
1.53809e-05
1.53809e-05
1.54053e-05
1.54053e-05
1.54053e-05
1.54053e-05
1.54053e-05
1.54053e-05
1.54297e-05
1.54053e-05
1.54297e-05
1.54297e-05
1.54541e-05
1.54541e-05
1.54785e-05
1.54785e-05
1.55029e-05
1.55029e-05
1.55273e-05
1.55273e-05
1.55518e-05
1.55518e-05
1.55762e-05
1.55762e-05
1.56006e-05
1.56006e-05
1.5625e-05
1.5625e-05
1.56494e-05
1.56494e-05
1.56982e-05
1.56982e-05
1.57227e-05
1.57227e-05
1.57715e-05
1.57715e-05
1.57959e-05
1.57959e-05
1.58203e-05
1.58203e-05
1.58447e-05
1.58447e-05
1.58936e-05
1.58936e-05
1.5918e-05
1.5918e-05
1.59424e-05
1.59668e-05
1.59912e-05
1.59912e-05
1.60156e-05
1.60156e-05
1.60156e-05
1.59912e-05
1.604e-05
1.604e-05
1.60645e-05
1.60645e-05
1.60889e-05
1.60889e-05
1.61133e-05
1.61133e-05
1.61377e-05
1.61377e-05
1.61377e-05
1.61377e-05
1.61621e-05
1.61621e-05
1.61621e-05
1.61377e-05
1.61621e-05
1.61621e-05
1.61621e-05
1.61621e-05
1.61621e-05
1.61621e-05
1.61621e-05
1.61621e-05
1.61621e-05
1.61621e-05
1.61621e-05
1.61377e-05
1.61621e-05
1.61377e-05
1.61621e-05
1.61377e-05
1.61621e-05
1.61621e-05
1.61377e-05
1.61133e-05
1.61377e-05
1.61377e-05
1.61133e-05
1.61133e-05
1.61133e-05
1.61133e-05
1.60889e-05
1.60889e-05
1.60889e-05
1.60889e-05
1.60889e-05
1.60645e-05
1.60645e-05
1.60645e-05
1.604e-05
1.604e-05
1.604e-05
1.60156e-05
1.60156e-05
1.60156e-05
1.59912e-05
1.59912e-05
1.59912e-05
1.59912e-05
1.59912e-05
1.59912e-05
1.59424e-05
1.59424e-05
1.5918e-05
1.59424e-05
1.5918e-05
1.5918e-05
1.5918e-05
1.5918e-05
1.58936e-05
1.5918e-05
1.58936e-05
1.58936e-05
1.58691e-05
1.58936e-05
1.58691e-05
1.58691e-05
1.58447e-05
1.58447e-05
1.58447e-05
1.58447e-05
1.58447e-05
1.58203e-05
1.58203e-05
1.58203e-05
1.57959e-05
1.57959e-05
1.57959e-05
1.57959e-05
1.57715e-05
1.57715e-05
1.57715e-05
1.57715e-05
1.57715e-05
1.57715e-05
1.57715e-05
1.57715e-05
1.57471e-05
1.57471e-05
1.57471e-05
1.57471e-05
1.57227e-05
1.57227e-05
1.57227e-05
1.57227e-05
1.56982e-05
1.56982e-05
1.56982e-05
1.56982e-05
1.56982e-05
1.56982e-05
1.56982e-05
1.56982e-05
1.56982e-05
1.56982e-05
1.56982e-05
1.56982e-05
1.56738e-05
1.56738e-05
1.56738e-05
1.56738e-05
1.56738e-05
1.56738e-05
1.56738e-05
1.56738e-05
1.56494e-05
1.56494e-05
1.56494e-05
1.56494e-05
1.56494e-05
1.56494e-05
1.56494e-05
1.56494e-05
1.56494e-05
1.56738e-05
1.56738e-05
1.56738e-05
1.56738e-05
1.56738e-05
1.56738e-05
1.56738e-05
1.56738e-05
1.56494e-05
1.56738e-05
1.56738e-05
1.56738e-05
1.56738e-05
1.56738e-05
1.56738e-05
1.56738e-05
1.56738e-05
1.56982e-05
1.56982e-05
1.56982e-05
1.56982e-05
1.56982e-05
1.56982e-05
1.56982e-05
1.56982e-05
1.56982e-05
1.57227e-05
1.57227e-05
1.57227e-05
1.57227e-05
1.57227e-05
1.57227e-05
1.57227e-05
1.57471e-05
1.57227e-05
1.57471e-05
1.57227e-05
1.57471e-05
1.57471e-05
1.57471e-05
1.57471e-05
1.57471e-05
1.57471e-05
1.57471e-05
1.57471e-05
1.57471e-05
1.57471e-05
1.57471e-05
1.57471e-05
1.57715e-05
1.57471e-05
1.57715e-05
1.57471e-05
1.57471e-05
1.57227e-05
1.57471e-05
1.57227e-05
1.57471e-05
1.57471e-05
1.57471e-05
1.57471e-05
1.57471e-05
1.57471e-05
1.57471e-05
1.57471e-05
1.57471e-05
1.57471e-05
1.57471e-05
1.57227e-05
1.57471e-05
1.57471e-05
1.57471e-05
1.57227e-05
1.57227e-05
1.57471e-05
1.57471e-05
1.57227e-05
1.57227e-05
1.57227e-05
1.57227e-05
1.57227e-05
1.57227e-05
1.57227e-05
1.57227e-05
1.57227e-05
1.56982e-05
1.57227e-05
1.57227e-05
1.56982e-05
1.56982e-05
1.57227e-05
1.57227e-05
1.57227e-05
1.57227e-05
1.57227e-05
1.57227e-05
1.56982e-05
1.56982e-05
1.56982e-05
1.56982e-05
1.56982e-05
1.56982e-05
1.56982e-05
1.56982e-05
1.56738e-05
1.56738e-05
1.56982e-05
1.56982e-05
1.56738e-05
1.56738e-05
1.56738e-05
1.56738e-05
1.56494e-05
1.56738e-05
1.56738e-05
1.56738e-05
1.5625e-05
1.5625e-05
1.5625e-05
1.5625e-05
1.5625e-05
1.5625e-05
1.56494e-05
1.56494e-05
1.5625e-05
1.5625e-05
1.5625e-05
1.5625e-05
1.5625e-05
1.5625e-05
1.5625e-05
1.5625e-05
1.56006e-05
1.5625e-05
1.5625e-05
1.5625e-05
1.56006e-05
1.56006e-05
1.56006e-05
1.56006e-05
1.56006e-05
1.56006e-05
1.56006e-05
1.56006e-05
1.55762e-05
1.56006e-05
1.55762e-05
1.56006e-05
1.55762e-05
1.56006e-05
1.56006e-05
1.55762e-05
1.55762e-05
1.55762e-05
1.55762e-05
1.55762e-05
1.55762e-05
1.55762e-05
1.55762e-05
1.55762e-05
1.55762e-05
1.55762e-05
1.55762e-05
1.55762e-05
1.55762e-05
1.55762e-05
1.55762e-05
1.55762e-05
1.55518e-05
1.55518e-05
1.55518e-05
1.55518e-05
1.55518e-05
1.55518e-05
1.55518e-05
1.55518e-05
1.55273e-05
1.55518e-05
1.55273e-05
1.55273e-05
1.55029e-05
1.55273e-05
1.55273e-05
1.55273e-05
1.55273e-05
1.55273e-05
1.55273e-05
1.55273e-05
1.55273e-05
1.55273e-05
1.55273e-05
1.55273e-05
1.55273e-05
1.55273e-05
1.55273e-05
1.55273e-05
1.55273e-05
1.55273e-05
1.55273e-05
1.55273e-05
1.55029e-05
1.55029e-05
1.55029e-05
1.55029e-05
1.55029e-05
1.55029e-05
1.55029e-05
1.55029e-05
1.55029e-05
1.55029e-05
1.55029e-05
1.55029e-05
1.55029e-05
1.55029e-05
1.55029e-05
1.55029e-05
1.55029e-05
1.55029e-05
1.55029e-05
1.55029e-05
1.55029e-05
1.55029e-05
1.55029e-05
1.55029e-05
1.55029e-05
1.55029e-05
1.55029e-05
1.55029e-05
1.55029e-05
1.55029e-05
1.55273e-05
1.55029e-05
1.55273e-05
1.55273e-05
1.55273e-05
1.55273e-05
1.55273e-05
1.55273e-05
1.55273e-05
1.55273e-05
1.55518e-05
1.55273e-05
1.55273e-05
1.55273e-05
1.55518e-05
1.55518e-05
1.55518e-05
1.55762e-05
1.56006e-05
1.56006e-05
1.56006e-05
1.56006e-05
1.5625e-05
1.5625e-05
1.56494e-05
1.5625e-05
1.56494e-05
1.56738e-05
1.56738e-05
1.56982e-05
1.56982e-05
1.57227e-05
1.57227e-05
1.57471e-05
1.57471e-05
1.57715e-05
1.57959e-05
1.57959e-05
1.57959e-05
1.58447e-05
1.58447e-05
1.58691e-05
1.58936e-05
1.5918e-05
1.5918e-05
1.59668e-05
1.59668e-05
1.59912e-05
1.60156e-05
1.60156e-05
1.604e-05
1.60645e-05
1.60889e-05
1.61133e-05
1.61377e-05
1.61377e-05
1.61621e-05
1.61865e-05
1.62109e-05
1.62109e-05
1.62354e-05
1.62598e-05
1.62598e-05
1.62842e-05
1.63086e-05
1.6333e-05
1.6333e-05
1.63574e-05
1.63818e-05
1.63818e-05
1.63818e-05
1.64062e-05
1.64307e-05
1.64551e-05
1.64307e-05
1.64307e-05
1.64551e-05
1.64795e-05
1.64795e-05
1.65039e-05
1.65039e-05
1.65283e-05
1.65283e-05
1.65527e-05
1.65527e-05
1.65527e-05
1.65771e-05
1.65771e-05
1.65771e-05
1.65771e-05
1.66016e-05
1.65771e-05
1.66016e-05
1.66016e-05
1.66016e-05
1.66016e-05
1.66016e-05
1.66016e-05
1.66016e-05
1.66016e-05
1.66016e-05
1.65771e-05
1.66016e-05
1.66016e-05
1.66016e-05
1.66016e-05
1.66016e-05
1.66016e-05
1.66016e-05
1.66016e-05
1.66016e-05
1.66016e-05
1.65771e-05
1.65771e-05
1.65771e-05
1.65771e-05
1.65771e-05
1.65771e-05
1.65771e-05
1.65771e-05
1.65527e-05
1.65527e-05
1.65527e-05
1.65527e-05
1.65283e-05
1.65039e-05
1.65283e-05
1.65039e-05
1.65039e-05
1.64795e-05
1.64795e-05
1.64795e-05
1.64795e-05
1.64551e-05
1.64551e-05
1.64551e-05
1.64551e-05
1.64307e-05
1.64062e-05
1.64062e-05
1.64062e-05
1.63818e-05
1.64062e-05
1.63818e-05
1.63818e-05
1.63818e-05
1.63818e-05
1.63818e-05
1.63818e-05
1.63574e-05
1.63818e-05
1.63818e-05
1.63818e-05
1.63818e-05
1.63818e-05
1.63574e-05
1.63574e-05
1.63574e-05
1.63574e-05
1.63574e-05
1.63574e-05
1.6333e-05
1.6333e-05
1.6333e-05
1.6333e-05
1.63086e-05
1.63086e-05
1.63086e-05
1.63086e-05
1.63086e-05
1.63086e-05
1.62842e-05
1.63086e-05
1.63086e-05
1.62842e-05
1.62842e-05
1.62842e-05
1.62842e-05
1.62842e-05
1.62598e-05
1.62842e-05
1.62842e-05
1.62598e-05
1.62598e-05
1.62598e-05
1.62842e-05
1.62598e-05
1.62598e-05
1.62598e-05
1.62598e-05
1.62598e-05
1.62598e-05
1.62598e-05
1.62598e-05
1.62598e-05
1.62354e-05
1.62598e-05
1.62598e-05
1.62598e-05
1.62598e-05
1.62598e-05
1.62842e-05
1.62354e-05
1.62354e-05
1.62598e-05
1.62598e-05
1.62598e-05
1.62598e-05
1.62842e-05
1.62842e-05
1.62842e-05
1.62842e-05
1.62842e-05
1.63086e-05
1.63086e-05
1.62842e-05
1.63086e-05
1.63086e-05
1.63086e-05
1.63086e-05
1.63086e-05
1.63086e-05
1.63086e-05
1.63086e-05
1.63086e-05
1.63086e-05
1.63086e-05
1.63086e-05
1.63086e-05
1.63086e-05
1.63086e-05
1.63086e-05
1.63086e-05
1.63086e-05
1.6333e-05
1.63086e-05
1.6333e-05
1.6333e-05
1.6333e-05
1.6333e-05
1.6333e-05
1.6333e-05
1.6333e-05
1.6333e-05
1.6333e-05
1.6333e-05
1.6333e-05
1.6333e-05
1.6333e-05
1.6333e-05
1.6333e-05
1.6333e-05
1.6333e-05
1.6333e-05
1.6333e-05
1.6333e-05
1.6333e-05
1.6333e-05
1.6333e-05
1.6333e-05
1.6333e-05
1.63574e-05
1.63574e-05
1.6333e-05
1.63574e-05
1.63574e-05
1.63574e-05
1.6333e-05
1.6333e-05
1.6333e-05
1.63574e-05
1.63574e-05
1.63574e-05
1.63574e-05
1.63818e-05
1.63818e-05
1.63818e-05
1.64062e-05
1.64062e-05
1.64062e-05
1.64062e-05
1.64307e-05
1.64307e-05
1.64307e-05
1.64307e-05
1.64551e-05
1.64551e-05
1.64795e-05
1.64795e-05
1.64795e-05
1.65039e-05
1.65039e-05
1.65039e-05
1.65039e-05
1.65039e-05
1.65283e-05
1.65283e-05
1.65527e-05
1.65527e-05
1.65771e-05
1.65771e-05
1.65771e-05
1.66016e-05
1.66016e-05
1.66016e-05
1.6626e-05
1.6626e-05
1.6626e-05
1.6626e-05
1.6626e-05
1.6626e-05
1.6626e-05
1.6626e-05
1.66504e-05
1.66504e-05
1.66504e-05
1.6626e-05
1.66504e-05
1.66504e-05
1.66504e-05
1.6626e-05
1.6626e-05
1.6626e-05
1.6626e-05
1.66016e-05
1.6626e-05
1.66016e-05
1.66016e-05
1.65771e-05
1.65771e-05
1.65771e-05
1.65771e-05
1.65527e-05
1.65527e-05
1.65527e-05
1.65527e-05
1.65039e-05
1.64795e-05
1.64795e-05
1.64795e-05
1.64551e-05
1.64551e-05
1.64307e-05
1.64307e-05
1.64062e-05
1.64062e-05
1.63818e-05
1.63818e-05
1.63574e-05
1.63574e-05
1.63574e-05
1.6333e-05
1.63086e-05
1.63086e-05
1.63086e-05
1.62842e-05
1.62598e-05
1.62598e-05
1.62354e-05
1.62354e-05
1.62109e-05
1.62109e-05
1.61865e-05
1.61865e-05
1.61621e-05
1.61621e-05
1.61621e-05
1.61377e-05
1.61377e-05
1.61377e-05
1.61133e-05
1.61133e-05
1.61133e-05
1.61133e-05
1.60889e-05
1.60889e-05
1.60645e-05
1.60889e-05
1.60645e-05
1.60645e-05
1.604e-05
1.604e-05
1.604e-05
1.604e-05
1.604e-05
1.604e-05
1.60156e-05
1.60156e-05
1.60156e-05
1.60156e-05
1.60156e-05
1.60156e-05
1.59912e-05
1.59912e-05
1.59912e-05
1.59912e-05
1.59912e-05
1.59912e-05
1.59912e-05
1.59912e-05
1.59912e-05
1.59912e-05
1.59668e-05
1.59668e-05
1.59668e-05
1.59668e-05
1.59668e-05
1.59912e-05
1.59668e-05
1.59912e-05
1.59912e-05
1.59912e-05
1.59912e-05
1.59912e-05
1.59912e-05
1.59912e-05
1.59912e-05
1.59912e-05
1.59912e-05
1.59912e-05
1.59912e-05
1.59912e-05
1.59912e-05
1.59912e-05
1.59912e-05
1.59912e-05
1.59668e-05
1.59912e-05
1.59912e-05
1.59912e-05
1.59912e-05
1.59912e-05
1.59912e-05
1.59912e-05
1.59912e-05
1.59912e-05
1.59912e-05
1.59912e-05
1.59912e-05
1.59912e-05
1.59912e-05
1.59912e-05
1.59912e-05
1.60156e-05
1.60156e-05
1.60156e-05
1.59912e-05
1.60156e-05
1.60156e-05
1.60156e-05
1.60156e-05
1.60156e-05
1.60156e-05
1.60156e-05
1.60156e-05
1.60156e-05
1.60156e-05
1.60156e-05
1.60156e-05
1.604e-05
1.604e-05
1.604e-05
1.604e-05
1.604e-05
1.604e-05
1.604e-05
1.604e-05
1.60156e-05
1.60156e-05
1.604e-05
1.604e-05
1.604e-05
1.60645e-05
1.60645e-05
1.60645e-05
1.60645e-05
1.60889e-05
1.60889e-05
1.60889e-05
1.60889e-05
1.60889e-05
1.60889e-05
1.60889e-05
1.60889e-05
1.60889e-05
1.60889e-05
1.60889e-05
1.60889e-05
1.60889e-05
1.60889e-05
1.60889e-05
1.61133e-05
1.61133e-05
1.61133e-05
1.61133e-05
1.61133e-05
1.61133e-05
1.61133e-05
1.61377e-05
1.61377e-05
1.61621e-05
1.61621e-05
1.61621e-05
1.61621e-05
1.61621e-05
1.61621e-05
1.61621e-05
1.61865e-05
1.61865e-05
1.61865e-05
1.61865e-05
1.61865e-05
1.62109e-05
1.62109e-05
1.62109e-05
1.62109e-05
1.62109e-05
1.62109e-05
1.62109e-05
1.62354e-05
1.62354e-05
1.62354e-05
1.62354e-05
1.62598e-05
1.62842e-05
1.62842e-05
1.62842e-05
1.63086e-05
1.63086e-05
1.63086e-05
1.63086e-05
1.63086e-05
1.63086e-05
1.6333e-05
1.6333e-05
1.63574e-05
1.63574e-05
1.63818e-05
1.63818e-05
1.64062e-05
1.64062e-05
1.64307e-05
1.64307e-05
1.64551e-05
1.64795e-05
1.64795e-05
1.65039e-05
1.65039e-05
1.65283e-05
1.65283e-05
1.65527e-05
1.65771e-05
1.65771e-05
1.65771e-05
1.66016e-05
1.6626e-05
1.6626e-05
1.66504e-05
1.66748e-05
1.66992e-05
1.66992e-05
1.67236e-05
1.6748e-05
1.67725e-05
1.67969e-05
1.67969e-05
1.68213e-05
1.68457e-05
1.68457e-05
1.68701e-05
1.68945e-05
1.68945e-05
1.69189e-05
1.69434e-05
1.69678e-05
1.69922e-05
1.69922e-05
1.69922e-05
1.70166e-05
1.7041e-05
1.70654e-05
1.70654e-05
1.70898e-05
1.70898e-05
1.71143e-05
1.71143e-05
1.71387e-05
1.71631e-05
1.71875e-05
1.71875e-05
1.71875e-05
1.72119e-05
1.72119e-05
1.71875e-05
1.72119e-05
1.72363e-05
1.72607e-05
1.72607e-05
1.72607e-05
1.72852e-05
1.72852e-05
1.72852e-05
1.7334e-05
1.7334e-05
1.73584e-05
1.73584e-05
1.73584e-05
1.73584e-05
1.73828e-05
1.73584e-05
1.73828e-05
1.73828e-05
1.74072e-05
1.74072e-05
1.74072e-05
1.74072e-05
1.74072e-05
1.74072e-05
1.74072e-05
1.74316e-05
1.74316e-05
1.74316e-05
1.74316e-05
1.74561e-05
1.74561e-05
1.74561e-05
1.74561e-05
1.74805e-05
1.74561e-05
1.74805e-05
1.74805e-05
1.74805e-05
1.75049e-05
1.74805e-05
1.74805e-05
1.74805e-05
1.75049e-05
1.74805e-05
1.75049e-05
1.75049e-05
1.75049e-05
1.75049e-05
1.75049e-05
1.75049e-05
1.75049e-05
1.75049e-05
1.75049e-05
1.75049e-05
1.75049e-05
1.75049e-05
1.75293e-05
1.75293e-05
1.75293e-05
1.75049e-05
1.75293e-05
1.75293e-05
1.75293e-05
1.74805e-05
1.74805e-05
1.74805e-05
1.75049e-05
1.75049e-05
1.75049e-05
1.75049e-05
1.75049e-05
1.75049e-05
1.75049e-05
1.75049e-05
1.75049e-05
1.75049e-05
1.75049e-05
1.75049e-05
1.75049e-05
1.75049e-05
1.75049e-05
1.75049e-05
1.75049e-05
1.75049e-05
1.74805e-05
1.75049e-05
1.74805e-05
1.74805e-05
1.74805e-05
1.74805e-05
1.74805e-05
1.74805e-05
1.74805e-05
1.74805e-05
1.74805e-05
1.74805e-05
1.74805e-05
1.74805e-05
1.74805e-05
1.74805e-05
1.74805e-05
1.74805e-05
1.74805e-05
1.74805e-05
1.74805e-05
1.74805e-05
1.74805e-05
1.74805e-05
1.74561e-05
1.74561e-05
1.74561e-05
1.74561e-05
1.74561e-05
1.74561e-05
1.74561e-05
1.74561e-05
1.74561e-05
1.74561e-05
1.74561e-05
1.74561e-05
1.74316e-05
1.74561e-05
1.74561e-05
1.74561e-05
1.74316e-05
1.74072e-05
1.74072e-05
1.74072e-05
1.74072e-05
1.74316e-05
1.74316e-05
1.74316e-05
1.74072e-05
1.74316e-05
1.74072e-05
1.74072e-05
1.74072e-05
1.74072e-05
1.74316e-05
1.74316e-05
1.74072e-05
1.74072e-05
1.74072e-05
1.74072e-05
1.74072e-05
1.74072e-05
1.74072e-05
1.74072e-05
1.73828e-05
1.74072e-05
1.73828e-05
1.74072e-05
1.73828e-05
1.74072e-05
1.73828e-05
1.74072e-05
1.73828e-05
1.74072e-05
1.74072e-05
1.74072e-05
1.73828e-05
1.73828e-05
1.74072e-05
1.74072e-05
1.73828e-05
1.73828e-05
1.74072e-05
1.73828e-05
1.73828e-05
1.74072e-05
1.74072e-05
1.74072e-05
1.73828e-05
1.74072e-05
1.74072e-05
1.73828e-05
1.73828e-05
1.74072e-05
1.74072e-05
1.74072e-05
1.73828e-05
1.73828e-05
1.74072e-05
1.73828e-05
1.73828e-05
1.73828e-05
1.73828e-05
1.73828e-05
1.73584e-05
1.73584e-05
1.73828e-05
1.73828e-05
1.73828e-05
1.73828e-05
1.73828e-05
1.73828e-05
1.73828e-05
1.73828e-05
1.73828e-05
1.73828e-05
1.73828e-05
1.74072e-05
1.74072e-05
1.74072e-05
1.74072e-05
1.73828e-05
1.74072e-05
1.73828e-05
1.74072e-05
1.73828e-05
1.74072e-05
1.73828e-05
1.74072e-05
1.73828e-05
1.73828e-05
1.74072e-05
1.74072e-05
1.74072e-05
1.74316e-05
1.74072e-05
1.74316e-05
1.74316e-05
1.74316e-05
1.74316e-05
1.74561e-05
1.74561e-05
1.74561e-05
1.74561e-05
1.74561e-05
1.74561e-05
1.74805e-05
1.74805e-05
1.74805e-05
1.74805e-05
1.74805e-05
1.74805e-05
1.75049e-05
1.75049e-05
1.75049e-05
1.75049e-05
1.75049e-05
1.75293e-05
1.75293e-05
1.75293e-05
1.75293e-05
1.75537e-05
1.75537e-05
1.75537e-05
1.75537e-05
1.75537e-05
1.75537e-05
1.75537e-05
1.75781e-05
1.75781e-05
1.75781e-05
1.76025e-05
1.76025e-05
1.76025e-05
1.7627e-05
1.7627e-05
1.76514e-05
1.76514e-05
1.76514e-05
1.76514e-05
1.76514e-05
1.76758e-05
1.76758e-05
1.76758e-05
1.76758e-05
1.76758e-05
1.77002e-05
1.77002e-05
1.77002e-05
1.77002e-05
1.77002e-05
1.77002e-05
1.77246e-05
1.77246e-05
1.77246e-05
1.77246e-05
1.7749e-05
1.7749e-05
1.77734e-05
1.7749e-05
1.7749e-05
1.77734e-05
1.77734e-05
1.77734e-05
1.77734e-05
1.77979e-05
1.77734e-05
1.77734e-05
1.77979e-05
1.77979e-05
1.77979e-05
1.77979e-05
1.77979e-05
1.77979e-05
1.77979e-05
1.77979e-05
1.77979e-05
1.78223e-05
1.77979e-05
1.77979e-05
1.78223e-05
1.77979e-05
1.77979e-05
1.78223e-05
1.78223e-05
1.78223e-05
1.78223e-05
1.78223e-05
1.78223e-05
1.78223e-05
1.77979e-05
1.77979e-05
1.78223e-05
1.78223e-05
1.78223e-05
1.78223e-05
1.78223e-05
1.78467e-05
1.78223e-05
1.78223e-05
1.78223e-05
1.78467e-05
1.78467e-05
1.78467e-05
1.78467e-05
1.78467e-05
1.78467e-05
1.78223e-05
1.78223e-05
1.78223e-05
1.78223e-05
1.78223e-05
1.78223e-05
1.78223e-05
1.78223e-05
1.77979e-05
1.77979e-05
1.78223e-05
1.78223e-05
1.78223e-05
1.78223e-05
1.78223e-05
1.77979e-05
1.78223e-05
1.78223e-05
1.78223e-05
1.77979e-05
1.77979e-05
1.77979e-05
1.78223e-05
1.78223e-05
1.77979e-05
1.78223e-05
1.77979e-05
1.77979e-05
1.77979e-05
1.77979e-05
1.77979e-05
1.77979e-05
1.77979e-05
1.77979e-05
1.77979e-05
1.77979e-05
1.77979e-05
1.77734e-05
1.77734e-05
1.77979e-05
1.77734e-05
1.77734e-05
1.77979e-05
1.77734e-05
1.77734e-05
1.77734e-05
1.7749e-05
1.77734e-05
1.77734e-05
1.7749e-05
1.77734e-05
1.77734e-05
1.77734e-05
1.77734e-05
1.77734e-05
1.77734e-05
1.77734e-05
1.7749e-05
1.77734e-05
1.7749e-05
1.7749e-05
1.7749e-05
1.7749e-05
1.7749e-05
1.7749e-05
1.7749e-05
1.7749e-05
1.7749e-05
1.7749e-05
1.77246e-05
1.77246e-05
1.77246e-05
1.77246e-05
1.77246e-05
1.77246e-05
1.77246e-05
1.77246e-05
1.77246e-05
1.77246e-05
1.77246e-05
1.77246e-05
1.77246e-05
1.77246e-05
1.77246e-05
1.77246e-05
1.77246e-05
1.77246e-05
1.77246e-05
1.77246e-05
1.77002e-05
1.77002e-05
1.77002e-05
1.77002e-05
1.77002e-05
1.77002e-05
1.77002e-05
1.77002e-05
1.77002e-05
1.77002e-05
1.77002e-05
1.77002e-05
1.76758e-05
1.77002e-05
1.77002e-05
1.76758e-05
1.76758e-05
1.77002e-05
1.76758e-05
1.76758e-05
1.76758e-05
1.76758e-05
1.76758e-05
1.76514e-05
1.76514e-05
1.76758e-05
1.76758e-05
1.76758e-05
1.76758e-05
1.76758e-05
1.76758e-05
1.76758e-05
1.76758e-05
1.76514e-05
1.76758e-05
1.76758e-05
1.76514e-05
1.76514e-05
1.76758e-05
1.76514e-05
1.76514e-05
1.76514e-05
1.76514e-05
1.76514e-05
1.76514e-05
1.76514e-05
1.76514e-05
1.7627e-05
1.76514e-05
1.7627e-05
1.7627e-05
1.76514e-05
1.7627e-05
1.76514e-05
1.76514e-05
1.76514e-05
1.76514e-05
1.76514e-05
1.76514e-05
1.76514e-05
1.76514e-05
1.76514e-05
1.76514e-05
1.76514e-05
1.76514e-05
1.76514e-05
1.76514e-05
1.7627e-05
1.76514e-05
1.76514e-05
1.76514e-05
1.7627e-05
1.76514e-05
1.7627e-05
1.76514e-05
1.7627e-05
1.7627e-05
1.7627e-05
1.7627e-05
1.7627e-05
1.7627e-05
1.7627e-05
1.7627e-05
1.7627e-05
1.7627e-05
1.7627e-05
1.7627e-05
1.7627e-05
1.7627e-05
1.7627e-05
1.76025e-05
1.75781e-05
1.76025e-05
1.76025e-05
1.76025e-05
1.76025e-05
1.7627e-05
1.7627e-05
1.76025e-05
1.76025e-05
1.7627e-05
1.7627e-05
1.7627e-05
1.7627e-05
1.7627e-05
1.76025e-05
1.7627e-05
1.7627e-05
1.7627e-05
1.7627e-05
1.7627e-05
1.76025e-05
1.76025e-05
1.76025e-05
1.76025e-05
1.76025e-05
1.76025e-05
1.76025e-05
1.76025e-05
1.75781e-05
1.76025e-05
1.76025e-05
1.76025e-05
1.76025e-05
1.76025e-05
1.76025e-05
1.76025e-05
1.76025e-05
1.76025e-05
1.76025e-05
1.76025e-05
1.76025e-05
1.76025e-05
1.76025e-05
1.76025e-05
1.76025e-05
1.76025e-05
1.76025e-05
1.75781e-05
1.75781e-05
1.75781e-05
1.75781e-05
1.76025e-05
1.75781e-05
1.76025e-05
1.76025e-05
1.75781e-05
1.75781e-05
1.75781e-05
1.76025e-05
1.75781e-05
1.75781e-05
1.76025e-05
1.76025e-05
1.75781e-05
1.75781e-05
1.76025e-05
1.75781e-05
1.75537e-05
1.75781e-05
1.75781e-05
1.75781e-05
1.75781e-05
1.75781e-05
1.75781e-05
1.76025e-05
1.76025e-05
1.76025e-05
1.76025e-05
1.76025e-05
1.76025e-05
1.76025e-05
1.76025e-05
1.76025e-05
1.76025e-05
1.76025e-05
1.76025e-05
1.76025e-05
1.76025e-05
1.76025e-05
1.76025e-05
1.76025e-05
1.76025e-05
1.76025e-05
1.76025e-05
1.76025e-05
1.76025e-05
1.76025e-05
1.7627e-05
1.7627e-05
1.7627e-05
1.7627e-05
1.76514e-05
1.76514e-05
1.76514e-05
1.76514e-05
1.76514e-05
1.76514e-05
1.76514e-05
1.76514e-05
1.76514e-05
1.76514e-05
1.76514e-05
1.76514e-05
1.76514e-05
1.76514e-05
1.76514e-05
1.76514e-05
1.76514e-05
1.76514e-05
1.76758e-05
1.76514e-05
1.76514e-05
1.76514e-05
1.76514e-05
1.76758e-05
1.76514e-05
1.76758e-05
1.76758e-05
1.76758e-05
1.76758e-05
1.76758e-05
1.76758e-05
1.76758e-05
1.76758e-05
1.76514e-05
1.76514e-05
1.76514e-05
1.76514e-05
1.76514e-05
1.76758e-05
1.76514e-05
1.76758e-05
1.76758e-05
1.76758e-05
1.76758e-05
1.76758e-05
1.76758e-05
1.76758e-05
1.76758e-05
1.76758e-05
1.76758e-05
1.76758e-05
1.76758e-05
1.76758e-05
1.76758e-05
1.76758e-05
1.76514e-05
1.76758e-05
1.76758e-05
1.76514e-05
1.76514e-05
1.76514e-05
1.76514e-05
1.76514e-05
1.76514e-05
1.76514e-05
1.76758e-05
1.76514e-05
1.76514e-05
1.76514e-05
1.76758e-05
1.76758e-05
1.76758e-05
1.76758e-05
1.76514e-05
1.76758e-05
1.76758e-05
1.76514e-05
1.76758e-05
1.76758e-05
1.76514e-05
1.76758e-05
1.76758e-05
1.76758e-05
1.76514e-05
1.76514e-05
1.76514e-05
1.76758e-05
1.76514e-05
1.76514e-05
1.76514e-05
1.76514e-05
1.76514e-05
1.76758e-05
1.76514e-05
1.76758e-05
1.76514e-05
1.76758e-05
1.76514e-05
1.76514e-05
1.7627e-05
1.76514e-05
1.76514e-05
1.76514e-05
1.76514e-05
1.76514e-05
1.76514e-05
1.76514e-05
1.76514e-05
1.76514e-05
1.76758e-05
1.76758e-05
1.76514e-05
1.76758e-05
1.76758e-05
1.76758e-05
1.76514e-05
1.76758e-05
1.76514e-05
1.76514e-05
1.76514e-05
1.76514e-05
1.76514e-05
1.76514e-05
1.76514e-05
1.76514e-05
1.76514e-05
1.76514e-05
1.76514e-05
1.76514e-05
1.76514e-05
1.76514e-05
1.76514e-05
1.76514e-05
1.76514e-05
1.76514e-05
1.76514e-05
1.76514e-05
1.76514e-05
1.76514e-05
1.76514e-05
1.76514e-05
1.76514e-05
1.76514e-05
1.76514e-05
1.76514e-05
1.76514e-05
1.76514e-05
1.7627e-05
1.76514e-05
1.7627e-05
1.7627e-05
1.7627e-05
1.7627e-05
1.7627e-05
1.7627e-05
1.7627e-05
1.7627e-05
1.7627e-05
1.7627e-05
1.7627e-05
1.7627e-05
1.76025e-05
1.76025e-05
1.76025e-05
1.76025e-05
1.76025e-05
1.76025e-05
1.76025e-05
1.76025e-05
1.76025e-05
1.76025e-05
1.76025e-05
1.76025e-05
1.76025e-05
1.75781e-05
1.76025e-05
1.76025e-05
1.76025e-05
1.75781e-05
1.75781e-05
1.75781e-05
1.75781e-05
1.75781e-05
1.75781e-05
1.75781e-05
1.75781e-05
1.75781e-05
1.75537e-05
1.75537e-05
1.75537e-05
1.75537e-05
1.75537e-05
1.75537e-05
1.75781e-05
1.75537e-05
1.75537e-05
1.75537e-05
1.75781e-05
1.75537e-05
1.75537e-05
1.75537e-05
1.75537e-05
1.75537e-05
1.75537e-05
1.75537e-05
1.75537e-05
1.75537e-05
1.75537e-05
1.75537e-05
1.75537e-05
1.75293e-05
1.75293e-05
1.75537e-05
1.75293e-05
1.75293e-05
1.75293e-05
1.75293e-05
1.75293e-05
1.75293e-05
1.75293e-05
1.75293e-05
1.75293e-05
1.75049e-05
1.75049e-05
1.75049e-05
1.75049e-05
1.75049e-05
1.75049e-05
1.75049e-05
1.75049e-05
1.75049e-05
1.75049e-05
1.75049e-05
1.75049e-05
1.75049e-05
1.75049e-05
1.75049e-05
1.75049e-05
1.75049e-05
1.75049e-05
1.75049e-05
1.75049e-05
1.74805e-05
1.74805e-05
1.74805e-05
1.74805e-05
1.74805e-05
1.74805e-05
1.74805e-05
1.74805e-05
1.74805e-05
1.74805e-05
1.74805e-05
1.74805e-05
1.74805e-05
1.74805e-05
1.74805e-05
1.74805e-05
1.74805e-05
1.74805e-05
1.74805e-05
1.74805e-05
1.74805e-05
1.74805e-05
1.74805e-05
1.74805e-05
1.74805e-05
1.74805e-05
1.74805e-05
1.74805e-05
1.74805e-05
1.74561e-05
1.74805e-05
1.74805e-05
1.74805e-05
1.74805e-05
1.74805e-05
1.74805e-05
1.74805e-05
1.74805e-05
1.74805e-05
1.74805e-05
1.74805e-05
1.74805e-05
1.74805e-05
1.74805e-05
1.74805e-05
1.74805e-05
1.75049e-05
1.74805e-05
1.75049e-05
1.75049e-05
1.75293e-05
1.75293e-05
1.75293e-05
1.75537e-05
1.75537e-05
1.75537e-05
1.75537e-05
1.75537e-05
1.75781e-05
1.75781e-05
1.76025e-05
1.76025e-05
1.75781e-05
1.76025e-05
1.76025e-05
1.76025e-05
1.7627e-05
1.7627e-05
1.7627e-05
1.76514e-05
1.76514e-05
1.76514e-05
1.76514e-05
1.76758e-05
1.76758e-05
1.77002e-05
1.77002e-05
1.77246e-05
1.77246e-05
1.77246e-05
1.77246e-05
1.7749e-05
1.7749e-05
1.7749e-05
1.7749e-05
1.77734e-05
1.77734e-05
1.77734e-05
1.77734e-05
1.77734e-05
1.77734e-05
1.77979e-05
1.77979e-05
1.77979e-05
1.77979e-05
1.77979e-05
1.78223e-05
1.78223e-05
1.78223e-05
1.78223e-05
1.78223e-05
1.78223e-05
1.78223e-05
1.78223e-05
1.78467e-05
1.78467e-05
1.78467e-05
1.78223e-05
1.77979e-05
1.78223e-05
1.78223e-05
1.78223e-05
1.78223e-05
1.78467e-05
1.78223e-05
1.78467e-05
1.78467e-05
1.78467e-05
1.78467e-05
1.78223e-05
1.78467e-05
1.78467e-05
1.78467e-05
1.78223e-05
1.78467e-05
1.78223e-05
1.78223e-05
1.78223e-05
1.78223e-05
1.77979e-05
1.77979e-05
1.77979e-05
1.77979e-05
1.77734e-05
1.77734e-05
1.77734e-05
1.77734e-05
1.77734e-05
1.77734e-05
1.77734e-05
1.77734e-05
1.77734e-05
1.77734e-05
1.77734e-05
1.77734e-05
1.77734e-05
1.77734e-05
1.77734e-05
1.7749e-05
1.7749e-05
1.7749e-05
1.77246e-05
1.77246e-05
1.77246e-05
1.77246e-05
1.77246e-05
1.77246e-05
1.77002e-05
1.77002e-05
1.77002e-05
1.77002e-05
1.76758e-05
1.76758e-05
1.76758e-05
1.76758e-05
1.76758e-05
1.76514e-05
1.76514e-05
1.76514e-05
1.76514e-05
1.76514e-05
1.76025e-05
1.76025e-05
1.76025e-05
1.76025e-05
1.76025e-05
1.76025e-05
1.76025e-05
1.75781e-05
1.75781e-05
1.75781e-05
1.75781e-05
1.75781e-05
1.75537e-05
1.75537e-05
1.75537e-05
1.75537e-05
1.75537e-05
1.75537e-05
1.75293e-05
1.75293e-05
1.75293e-05
1.75049e-05
1.75049e-05
1.75049e-05
1.74805e-05
1.74805e-05
1.74805e-05
1.74561e-05
1.74561e-05
1.74561e-05
1.74561e-05
1.74561e-05
1.74561e-05
1.74561e-05
1.74561e-05
1.74316e-05
1.74316e-05
1.74316e-05
1.74316e-05
1.74072e-05
1.74072e-05
1.74072e-05
1.74072e-05
1.73828e-05
1.73828e-05
1.73828e-05
1.73828e-05
1.73828e-05
1.73828e-05
1.73584e-05
1.73584e-05
1.73584e-05
1.73584e-05
1.73584e-05
1.73584e-05
1.73584e-05
1.7334e-05
1.7334e-05
1.7334e-05
1.7334e-05
1.7334e-05
1.73096e-05
1.73096e-05
1.73096e-05
1.73096e-05
1.72852e-05
1.72852e-05
1.72852e-05
1.72852e-05
1.72607e-05
1.72363e-05
1.72363e-05
1.72607e-05
1.72607e-05
1.72363e-05
1.72363e-05
1.72363e-05
1.72363e-05
1.72363e-05
1.72363e-05
1.72363e-05
1.72363e-05
1.72119e-05
1.72119e-05
1.72119e-05
1.72119e-05
1.72119e-05
1.71875e-05
1.71875e-05
1.71875e-05
1.71875e-05
1.71875e-05
1.71875e-05
1.71875e-05
1.71631e-05
1.71631e-05
1.71631e-05
1.71631e-05
1.71631e-05
1.71631e-05
1.71387e-05
1.71387e-05
1.71387e-05
1.71387e-05
1.71387e-05
1.71387e-05
1.71387e-05
1.71387e-05
1.71387e-05
1.71387e-05
1.71387e-05
1.71143e-05
1.71143e-05
1.71143e-05
1.71143e-05
1.71143e-05
1.71143e-05
1.71143e-05
1.71143e-05
1.70898e-05
1.70898e-05
1.70898e-05
1.70898e-05
1.70898e-05
1.70898e-05
1.70898e-05
1.70898e-05
1.70654e-05
1.70898e-05
1.70654e-05
1.70654e-05
1.70654e-05
1.70654e-05
1.70654e-05
1.70654e-05
1.70654e-05
1.7041e-05
1.70654e-05
1.70654e-05
1.7041e-05
1.70166e-05
1.70166e-05
1.70166e-05
1.70166e-05
1.70166e-05
1.70166e-05
1.70166e-05
1.70166e-05
1.70166e-05
1.70166e-05
1.70166e-05
1.70166e-05
1.69922e-05
1.70166e-05
1.69922e-05
1.69922e-05
1.69922e-05
1.69922e-05
1.69922e-05
1.69922e-05
1.69922e-05
1.69922e-05
1.69922e-05
1.69922e-05
1.69922e-05
1.69678e-05
1.69678e-05
1.69678e-05
1.69678e-05
1.69678e-05
1.69678e-05
1.69678e-05
1.69678e-05
1.69678e-05
1.69678e-05
1.69678e-05
1.69678e-05
1.69678e-05
1.69434e-05
1.69434e-05
1.69434e-05
1.69434e-05
1.69434e-05
1.69434e-05
1.69434e-05
1.69434e-05
1.69434e-05
1.69434e-05
1.69434e-05
1.69434e-05
1.69434e-05
1.69434e-05
1.69189e-05
1.69434e-05
1.69189e-05
1.69189e-05
1.69189e-05
1.69189e-05
1.69189e-05
1.69189e-05
1.69189e-05
1.68945e-05
1.68945e-05
1.68945e-05
1.68945e-05
1.68945e-05
1.68945e-05
1.68945e-05
1.68945e-05
1.68945e-05
1.68945e-05
1.68945e-05
1.68945e-05
1.68945e-05
1.68701e-05
1.68457e-05
1.68457e-05
1.68701e-05
1.68701e-05
1.68701e-05
1.68701e-05
1.68701e-05
1.68701e-05
1.68701e-05
1.68701e-05
1.68701e-05
1.68701e-05
1.68701e-05
1.68701e-05
1.68701e-05
1.68701e-05
1.68457e-05
1.68457e-05
1.68457e-05
1.68457e-05
1.68213e-05
1.68213e-05
1.68213e-05
1.68213e-05
1.68213e-05
1.68213e-05
1.68213e-05
1.68213e-05
1.67969e-05
1.68213e-05
1.68213e-05
1.68213e-05
1.68213e-05
1.68213e-05
1.68213e-05
1.68213e-05
1.68213e-05
1.68213e-05
1.68213e-05
1.67969e-05
1.67969e-05
1.67969e-05
1.67969e-05
1.67969e-05
1.67969e-05
1.67969e-05
1.67969e-05
1.67969e-05
1.67969e-05
1.67969e-05
1.67969e-05
1.67969e-05
1.67969e-05
1.67969e-05
1.67969e-05
1.67969e-05
1.67725e-05
1.67725e-05
1.67725e-05
1.67725e-05
1.67725e-05
1.67725e-05
1.67969e-05
1.67969e-05
1.67725e-05
1.67725e-05
1.67725e-05
1.67969e-05
1.67725e-05
1.6748e-05
1.6748e-05
1.6748e-05
1.6748e-05
1.6748e-05
1.6748e-05
1.6748e-05
1.6748e-05
1.6748e-05
1.6748e-05
1.6748e-05
1.6748e-05
1.6748e-05
1.6748e-05
1.6748e-05
1.6748e-05
1.6748e-05
1.6748e-05
1.6748e-05
1.67236e-05
1.6748e-05
1.67236e-05
1.67236e-05
1.67236e-05
1.67236e-05
1.67236e-05
1.67236e-05
1.66992e-05
1.67236e-05
1.66992e-05
1.67236e-05
1.67236e-05
1.67236e-05
1.67236e-05
1.67236e-05
1.67236e-05
1.67236e-05
1.67236e-05
1.67236e-05
1.66992e-05
1.67236e-05
1.67236e-05
1.67236e-05
1.66992e-05
1.66992e-05
1.66992e-05
1.66992e-05
1.66992e-05
1.66992e-05
1.66992e-05
1.66992e-05
1.66992e-05
1.66992e-05
1.66992e-05
1.66992e-05
1.66992e-05
1.66992e-05
1.66992e-05
1.66992e-05
1.66992e-05
1.66992e-05
1.66992e-05
1.66992e-05
1.66992e-05
1.66992e-05
1.66992e-05
1.66992e-05
1.66992e-05
1.66748e-05
1.66504e-05
1.66504e-05
1.66748e-05
1.66504e-05
1.66748e-05
1.66504e-05
1.66748e-05
1.66748e-05
1.66748e-05
1.66748e-05
1.66748e-05
1.66748e-05
1.66748e-05
1.66748e-05
1.66748e-05
1.66748e-05
1.66748e-05
1.66504e-05
1.66504e-05
1.66504e-05
1.66504e-05
1.66504e-05
1.6626e-05
1.6626e-05
1.6626e-05
1.6626e-05
1.6626e-05
1.6626e-05
1.6626e-05
1.6626e-05
1.6626e-05
1.6626e-05
1.6626e-05
1.6626e-05
1.6626e-05
1.6626e-05
1.6626e-05
1.6626e-05
1.6626e-05
1.6626e-05
1.6626e-05
1.6626e-05
1.6626e-05
1.6626e-05
1.6626e-05
1.6626e-05
1.6626e-05
1.6626e-05
1.6626e-05
1.6626e-05
1.6626e-05
1.6626e-05
1.6626e-05
1.66016e-05
1.66016e-05
1.66016e-05
1.66016e-05
1.66016e-05
1.66016e-05
1.66016e-05
1.66016e-05
1.66016e-05
1.66016e-05
1.66016e-05
1.66016e-05
1.65771e-05
1.66016e-05
1.66016e-05
1.66016e-05
1.65771e-05
1.65771e-05
1.65771e-05
1.65771e-05
1.65771e-05
1.65771e-05
1.65771e-05
1.65771e-05
1.65771e-05
1.65771e-05
1.65771e-05
1.65771e-05
1.65771e-05
1.65771e-05
1.65771e-05
1.65771e-05
1.65771e-05
1.65771e-05
1.65771e-05
1.65771e-05
1.65771e-05
1.65771e-05
1.65771e-05
1.65771e-05
1.65771e-05
1.65771e-05
1.65771e-05
1.65771e-05
1.65771e-05
1.65771e-05
1.65771e-05
1.66016e-05
1.66016e-05
1.66016e-05
1.66016e-05
1.66016e-05
1.66016e-05
1.66016e-05
1.66016e-05
1.66016e-05
1.66016e-05
1.6626e-05
1.6626e-05
1.6626e-05
1.6626e-05
1.6626e-05
1.6626e-05
1.6626e-05
1.6626e-05
1.6626e-05
1.6626e-05
1.6626e-05
1.6626e-05
1.66504e-05
1.66504e-05
1.66504e-05
1.66504e-05
1.66504e-05
1.66504e-05
1.66504e-05
1.66504e-05
1.66504e-05
1.66748e-05
1.66748e-05
1.66748e-05
1.66748e-05
1.66748e-05
1.66748e-05
1.66748e-05
1.66748e-05
1.66748e-05
1.6626e-05
1.66504e-05
1.66504e-05
1.66748e-05
1.66748e-05
1.66748e-05
1.66748e-05
1.66748e-05
1.66748e-05
1.66748e-05
1.66748e-05
1.66748e-05
1.66748e-05
1.66748e-05
1.66992e-05
1.66748e-05
1.66992e-05
1.66748e-05
1.66748e-05
1.66748e-05
1.66748e-05
1.66748e-05
1.66748e-05
1.66748e-05
1.66748e-05
1.66748e-05
1.66748e-05
1.66748e-05
1.66748e-05
1.66748e-05
1.66748e-05
1.66748e-05
1.66748e-05
1.66748e-05
1.66992e-05
1.66992e-05
1.66992e-05
1.66748e-05
1.66748e-05
1.66748e-05
1.66748e-05
1.66748e-05
1.66992e-05
1.66748e-05
1.66748e-05
1.66748e-05
1.66748e-05
1.66748e-05
1.66748e-05
1.66748e-05
1.66748e-05
1.66748e-05
1.66748e-05
1.66748e-05
1.66748e-05
1.66748e-05
1.66748e-05
1.66748e-05
1.66504e-05
1.66748e-05
1.66504e-05
1.66748e-05
1.66504e-05
1.66504e-05
1.66504e-05
1.66504e-05
1.66504e-05
1.66504e-05
1.66748e-05
1.66504e-05
1.6626e-05
1.66016e-05
1.6626e-05
1.6626e-05
1.6626e-05
1.6626e-05
1.6626e-05
1.6626e-05
1.6626e-05
1.6626e-05
1.6626e-05
1.6626e-05
1.6626e-05
1.6626e-05
1.6626e-05
1.66016e-05
1.66016e-05
1.66016e-05
1.66016e-05
1.66016e-05
1.66016e-05
1.66016e-05
1.66016e-05
1.66016e-05
1.65771e-05
1.65771e-05
1.65771e-05
1.65771e-05
1.65771e-05
1.65771e-05
1.65771e-05
1.65771e-05
1.65771e-05
1.65771e-05
1.65771e-05
1.65771e-05
1.65771e-05
1.65771e-05
1.65771e-05
1.65771e-05
1.65771e-05
1.65527e-05
1.65771e-05
1.65527e-05
1.65527e-05
1.65527e-05
1.65527e-05
1.65527e-05
1.65527e-05
1.65527e-05
1.65527e-05
1.65527e-05
1.65527e-05
1.65283e-05
1.65283e-05
1.65283e-05
1.65283e-05
1.65283e-05
1.65283e-05
1.65283e-05
1.65039e-05
1.65039e-05
1.65039e-05
1.65039e-05
1.65039e-05
1.65039e-05
1.65039e-05
1.65039e-05
1.65039e-05
1.65039e-05
1.64795e-05
1.64551e-05
1.64551e-05
1.64551e-05
1.64795e-05
1.64795e-05
1.64795e-05
1.64795e-05
1.64795e-05
1.64795e-05
1.64795e-05
1.64795e-05
1.64795e-05
1.64795e-05
1.64551e-05
1.64795e-05
1.64551e-05
1.64551e-05
1.64551e-05
1.64551e-05
1.64307e-05
1.64307e-05
1.64307e-05
1.64307e-05
1.64307e-05
1.64307e-05
1.64307e-05
1.64062e-05
1.64062e-05
1.64062e-05
1.64062e-05
1.64062e-05
1.64062e-05
1.64062e-05
1.64062e-05
1.64062e-05
1.64062e-05
1.64062e-05
1.64062e-05
1.64062e-05
1.64062e-05
1.63818e-05
1.64062e-05
1.63818e-05
1.64062e-05
1.63818e-05
1.63818e-05
1.63818e-05
1.63818e-05
1.63818e-05
1.63818e-05
1.63818e-05
1.63818e-05
1.63818e-05
1.63818e-05
1.63818e-05
1.63818e-05
1.63818e-05
1.63574e-05
1.63818e-05
1.63574e-05
1.63574e-05
1.63574e-05
1.63574e-05
1.63574e-05
1.63574e-05
1.63574e-05
1.63574e-05
1.6333e-05
1.6333e-05
1.6333e-05
1.6333e-05
1.6333e-05
1.6333e-05
1.6333e-05
1.6333e-05
1.6333e-05
1.6333e-05
1.6333e-05
1.6333e-05
1.6333e-05
1.6333e-05
1.6333e-05
1.63086e-05
1.63086e-05
1.63086e-05
1.63086e-05
1.63086e-05
1.63086e-05
1.63086e-05
1.63086e-05
1.63086e-05
1.63086e-05
1.62842e-05
1.62842e-05
1.62842e-05
1.62842e-05
1.62842e-05
1.62842e-05
1.62842e-05
1.62842e-05
1.62842e-05
1.62842e-05
1.62842e-05
1.62842e-05
1.62842e-05
1.62842e-05
1.62842e-05
1.62842e-05
1.62842e-05
1.62842e-05
1.62842e-05
1.62842e-05
1.62598e-05
1.62598e-05
1.62842e-05
1.62598e-05
1.62598e-05
1.62598e-05
1.62598e-05
1.62598e-05
1.62598e-05
1.62598e-05
1.62598e-05
1.62598e-05
1.62598e-05
1.62354e-05
1.62354e-05
1.62354e-05
1.62354e-05
1.62354e-05
1.62354e-05
1.62354e-05
1.62354e-05
1.62354e-05
1.62354e-05
1.62354e-05
1.62354e-05
1.62109e-05
1.61865e-05
1.62109e-05
1.62109e-05
1.62109e-05
1.62109e-05
1.62109e-05
1.62109e-05
1.62109e-05
1.62109e-05
1.62109e-05
1.62109e-05
1.62109e-05
1.62109e-05
1.62109e-05
1.62109e-05
1.62109e-05
1.62109e-05
1.62109e-05
1.62109e-05
1.62109e-05
1.62109e-05
1.61865e-05
1.61865e-05
1.61865e-05
1.61865e-05
1.61865e-05
1.61865e-05
1.61865e-05
1.61865e-05
1.61865e-05
1.61865e-05
1.61865e-05
1.61865e-05
1.61865e-05
1.61865e-05
1.61865e-05
1.61621e-05
1.61865e-05
1.61865e-05
1.61865e-05
1.61621e-05
1.61621e-05
1.61621e-05
1.61865e-05
1.61621e-05
1.61621e-05
1.61865e-05
1.61621e-05
1.61621e-05
1.61621e-05
1.61621e-05
1.61865e-05
1.61865e-05
1.61621e-05
1.61865e-05
1.61621e-05
1.61865e-05
1.61621e-05
1.61621e-05
1.61621e-05
1.61621e-05
1.61865e-05
1.61865e-05
1.61865e-05
1.61865e-05
1.61865e-05
1.61865e-05
1.61865e-05
1.61865e-05
1.61865e-05
1.61621e-05
1.61621e-05
1.61621e-05
1.61865e-05
1.61865e-05
1.61865e-05
1.62109e-05
1.62109e-05
1.62109e-05
1.62109e-05
1.62109e-05
1.62109e-05
1.62109e-05
1.62109e-05
1.62109e-05
1.62109e-05
1.62354e-05
1.62354e-05
1.62354e-05
1.62354e-05
1.62354e-05
1.62354e-05
1.62354e-05
1.62354e-05
1.62354e-05
1.62354e-05
1.62354e-05
1.62354e-05
1.62598e-05
1.62598e-05
1.62598e-05
1.62598e-05
1.62598e-05
1.62842e-05
1.62842e-05
1.62842e-05
1.62842e-05
1.63086e-05
1.63086e-05
1.63086e-05
1.63086e-05
1.63086e-05
1.63086e-05
1.63086e-05
1.63086e-05
1.63086e-05
1.63086e-05
1.6333e-05
1.6333e-05
1.6333e-05
1.6333e-05
1.6333e-05
1.6333e-05
1.6333e-05
1.6333e-05
1.6333e-05
1.6333e-05
1.6333e-05
1.6333e-05
1.6333e-05
1.6333e-05
1.6333e-05
1.6333e-05
1.63574e-05
1.63574e-05
1.63574e-05
1.63574e-05
1.63574e-05
1.6333e-05
1.6333e-05
1.6333e-05
1.6333e-05
1.6333e-05
1.6333e-05
1.6333e-05
1.6333e-05
1.6333e-05
1.63574e-05
1.6333e-05
1.6333e-05
1.6333e-05
1.6333e-05
1.6333e-05
1.6333e-05
1.6333e-05
1.6333e-05
1.63574e-05
1.6333e-05
1.6333e-05
1.6333e-05
1.6333e-05
1.6333e-05
1.6333e-05
1.63086e-05
1.63086e-05
1.63086e-05
1.63086e-05
1.63086e-05
1.63086e-05
1.63086e-05
1.63086e-05
1.63086e-05
1.63086e-05
1.63086e-05
1.63086e-05
1.63086e-05
1.63086e-05
1.63086e-05
1.63086e-05
1.63086e-05
1.63086e-05
1.63086e-05
1.63086e-05
1.63086e-05
1.63086e-05
1.63086e-05
1.63086e-05
1.63086e-05
1.63086e-05
1.63086e-05
1.62842e-05
1.62842e-05
1.62842e-05
1.62842e-05
1.62842e-05
1.62842e-05
1.62842e-05
1.62842e-05
1.62842e-05
1.62598e-05
1.62598e-05
1.62598e-05
1.62598e-05
1.62598e-05
1.62598e-05
1.62598e-05
1.62354e-05
1.62598e-05
1.62598e-05
1.62354e-05
1.62109e-05
1.62109e-05
1.62109e-05
1.62109e-05
1.62109e-05
1.62109e-05
1.62109e-05
1.62109e-05
1.62109e-05
1.62109e-05
1.62109e-05
1.62109e-05
1.62109e-05
1.62109e-05
1.62109e-05
1.62109e-05
1.62109e-05
1.62109e-05
1.61865e-05
1.61865e-05
1.61865e-05
1.61865e-05
1.61865e-05
1.61621e-05
1.61621e-05
1.61621e-05
1.61621e-05
1.61621e-05
1.61621e-05
1.61621e-05
1.61621e-05
1.61621e-05
1.61621e-05
1.61621e-05
1.61621e-05
1.61377e-05
1.61377e-05
1.61621e-05
1.61621e-05
1.61377e-05
1.61377e-05
1.61377e-05
1.61377e-05
1.61377e-05
1.61133e-05
1.61133e-05
1.61133e-05
1.61133e-05
1.61133e-05
1.61133e-05
1.61133e-05
1.60889e-05
1.60889e-05
1.60889e-05
1.60889e-05
1.60889e-05
1.60889e-05
1.60889e-05
1.60889e-05
1.60889e-05
1.60645e-05
1.60889e-05
1.60645e-05
1.60645e-05
1.60645e-05
1.60645e-05
1.60645e-05
1.60645e-05
1.60645e-05
1.60645e-05
1.604e-05
1.60645e-05
1.604e-05
1.604e-05
1.60156e-05
1.60156e-05
1.60156e-05
1.60156e-05
1.60156e-05
1.60156e-05
1.60156e-05
1.60156e-05
1.60156e-05
1.60156e-05
1.60156e-05
1.60156e-05
1.60156e-05
1.59912e-05
1.60156e-05
1.59912e-05
1.59912e-05
1.59912e-05
1.59912e-05
1.59912e-05
1.59912e-05
1.59912e-05
1.59912e-05
1.59668e-05
1.59668e-05
1.59668e-05
1.59668e-05
1.59668e-05
1.59668e-05
1.59668e-05
1.59668e-05
1.59668e-05
1.59668e-05
1.59668e-05
1.59668e-05
1.59668e-05
1.59668e-05
1.59668e-05
1.59668e-05
1.59668e-05
1.59424e-05
1.59668e-05
1.59424e-05
1.59424e-05
1.59424e-05
1.59424e-05
1.59424e-05
1.59424e-05
1.59424e-05
1.5918e-05
1.5918e-05
1.5918e-05
1.5918e-05
1.5918e-05
1.5918e-05
1.5918e-05
1.5918e-05
1.5918e-05
1.5918e-05
1.58936e-05
1.5918e-05
1.58936e-05
1.58936e-05
1.58936e-05
1.58936e-05
1.58936e-05
1.58936e-05
1.58936e-05
1.58936e-05
1.58936e-05
1.58936e-05
1.58936e-05
1.58691e-05
1.58691e-05
1.58447e-05
1.58447e-05
1.58447e-05
1.58447e-05
1.58691e-05
1.58691e-05
1.58447e-05
1.58447e-05
1.58691e-05
1.58447e-05
1.58447e-05
1.58447e-05
1.58447e-05
1.58447e-05
1.58447e-05
1.58447e-05
1.58447e-05
1.58203e-05
1.58203e-05
1.58203e-05
1.58203e-05
1.58203e-05
1.58203e-05
1.57959e-05
1.57959e-05
1.57959e-05
