8.89e-06
8.89e-06
8.89e-06
8.89e-06
8.89e-06
8.86e-06
8.86e-06
8.86e-06
8.86e-06
8.86e-06
8.86e-06
8.86e-06
8.86e-06
8.86e-06
8.86e-06
8.84e-06
8.84e-06
8.84e-06
8.84e-06
8.84e-06
8.84e-06
8.84e-06
8.84e-06
8.81e-06
8.81e-06
8.81e-06
8.81e-06
8.81e-06
8.81e-06
8.81e-06
8.81e-06
8.81e-06
8.81e-06
8.79e-06
8.81e-06
8.79e-06
8.79e-06
8.79e-06
8.79e-06
8.79e-06
8.79e-06
8.79e-06
8.79e-06
8.76e-06
8.76e-06
8.76e-06
8.76e-06
8.76e-06
8.76e-06
8.76e-06
8.76e-06
8.76e-06
8.76e-06
8.76e-06
8.76e-06
8.76e-06
8.76e-06
8.76e-06
8.76e-06
8.76e-06
8.76e-06
8.74e-06
8.76e-06
8.74e-06
8.74e-06
8.74e-06
8.74e-06
8.74e-06
8.74e-06
8.74e-06
8.74e-06
8.74e-06
8.74e-06
8.74e-06
8.74e-06
8.74e-06
8.74e-06
8.72e-06
8.74e-06
8.72e-06
8.72e-06
8.72e-06
8.72e-06
8.72e-06
8.72e-06
8.72e-06
8.72e-06
8.72e-06
8.69e-06
8.69e-06
8.72e-06
8.69e-06
8.69e-06
8.69e-06
8.69e-06
8.69e-06
8.69e-06
8.69e-06
8.69e-06
8.69e-06
8.69e-06
8.69e-06
8.69e-06
8.69e-06
8.69e-06
8.69e-06
8.69e-06
8.67e-06
8.69e-06
8.67e-06
8.67e-06
8.67e-06
8.67e-06
8.67e-06
8.67e-06
8.67e-06
8.67e-06
8.67e-06
8.67e-06
8.67e-06
8.67e-06
8.67e-06
8.67e-06
8.67e-06
8.67e-06
8.67e-06
8.67e-06
8.67e-06
8.67e-06
8.67e-06
8.67e-06
8.64e-06
8.67e-06
8.64e-06
8.67e-06
8.64e-06
8.64e-06
8.64e-06
8.64e-06
8.64e-06
8.64e-06
8.64e-06
8.64e-06
8.64e-06
8.64e-06
8.64e-06
8.64e-06
8.64e-06
8.64e-06
8.62e-06
8.64e-06
8.62e-06
8.62e-06
8.62e-06
8.62e-06
8.62e-06
8.62e-06
8.62e-06
8.62e-06
8.62e-06
8.62e-06
8.62e-06
8.62e-06
8.62e-06
8.62e-06
8.62e-06
8.62e-06
8.62e-06
8.62e-06
8.62e-06
8.62e-06
8.62e-06
8.62e-06
8.62e-06
8.62e-06
8.62e-06
8.62e-06
8.59e-06
8.62e-06
8.59e-06
8.62e-06
8.59e-06
8.62e-06
8.59e-06
8.59e-06
8.59e-06
8.62e-06
8.59e-06
8.59e-06
8.62e-06
8.62e-06
8.59e-06
8.59e-06
8.59e-06
8.59e-06
8.59e-06
8.59e-06
8.59e-06
8.59e-06
8.59e-06
8.59e-06
8.59e-06
8.59e-06
8.59e-06
8.59e-06
8.59e-06
8.59e-06
8.59e-06
8.59e-06
8.59e-06
8.59e-06
8.59e-06
8.59e-06
8.59e-06
8.59e-06
8.59e-06
8.59e-06
8.59e-06
8.59e-06
8.57e-06
8.59e-06
8.57e-06
8.57e-06
8.57e-06
8.57e-06
8.57e-06
8.57e-06
8.57e-06
8.57e-06
8.57e-06
8.57e-06
8.57e-06
8.57e-06
8.57e-06
8.57e-06
8.57e-06
8.57e-06
8.57e-06
8.57e-06
8.57e-06
8.57e-06
8.57e-06
8.57e-06
8.54e-06
8.54e-06
8.54e-06
8.57e-06
8.54e-06
8.54e-06
8.54e-06
8.54e-06
8.54e-06
8.54e-06
8.54e-06
8.54e-06
8.54e-06
8.54e-06
8.54e-06
8.54e-06
8.54e-06
8.54e-06
8.54e-06
8.54e-06
8.54e-06
8.54e-06
8.54e-06
8.54e-06
8.54e-06
8.54e-06
8.54e-06
8.54e-06
8.54e-06
8.54e-06
8.54e-06
8.54e-06
8.54e-06
8.54e-06
8.54e-06
8.54e-06
8.54e-06
8.54e-06
8.54e-06
8.54e-06
8.54e-06
8.54e-06
8.54e-06
8.54e-06
8.54e-06
8.57e-06
8.57e-06
8.57e-06
8.57e-06
8.57e-06
8.57e-06
8.57e-06
8.57e-06
8.57e-06
8.57e-06
8.59e-06
8.59e-06
8.59e-06
8.59e-06
8.59e-06
8.59e-06
8.62e-06
8.59e-06
8.62e-06
8.62e-06
8.62e-06
8.62e-06
8.62e-06
8.62e-06
8.62e-06
8.62e-06
8.64e-06
8.64e-06
8.64e-06
8.64e-06
8.67e-06
8.67e-06
8.67e-06
8.67e-06
8.67e-06
8.67e-06
8.69e-06
8.69e-06
8.69e-06
8.69e-06
8.69e-06
8.72e-06
8.72e-06
8.72e-06
8.74e-06
8.74e-06
8.74e-06
8.74e-06
8.74e-06
8.74e-06
8.76e-06
8.76e-06
8.76e-06
8.76e-06
8.76e-06
8.76e-06
8.79e-06
8.79e-06
8.79e-06
8.79e-06
8.79e-06
8.81e-06
8.81e-06
8.81e-06
8.81e-06
8.81e-06
8.84e-06
8.84e-06
8.84e-06
8.84e-06
8.86e-06
8.86e-06
8.86e-06
8.86e-06
8.86e-06
8.86e-06
8.86e-06
8.89e-06
8.89e-06
8.89e-06
8.89e-06
8.89e-06
8.89e-06
8.89e-06
8.91e-06
8.91e-06
8.91e-06
8.91e-06
8.91e-06
8.91e-06
8.91e-06
8.94e-06
8.94e-06
8.94e-06
8.94e-06
8.94e-06
8.94e-06
8.94e-06
8.94e-06
8.94e-06
8.96e-06
8.96e-06
8.96e-06
8.96e-06
8.96e-06
8.96e-06
8.96e-06
8.96e-06
8.96e-06
8.96e-06
8.96e-06
8.98e-06
8.98e-06
8.98e-06
8.98e-06
8.98e-06
8.98e-06
8.98e-06
8.98e-06
8.98e-06
8.98e-06
8.98e-06
8.98e-06
8.98e-06
8.98e-06
8.98e-06
8.98e-06
8.98e-06
8.98e-06
8.98e-06
8.98e-06
8.98e-06
8.98e-06
8.98e-06
8.98e-06
8.98e-06
8.98e-06
8.98e-06
9.01e-06
8.98e-06
8.98e-06
8.98e-06
9.01e-06
8.98e-06
9.01e-06
9.01e-06
9.01e-06
8.98e-06
8.98e-06
9.01e-06
9.01e-06
8.98e-06
8.98e-06
8.98e-06
8.98e-06
8.98e-06
8.98e-06
8.98e-06
8.98e-06
8.98e-06
8.98e-06
8.98e-06
8.98e-06
8.98e-06
8.98e-06
8.98e-06
8.98e-06
8.98e-06
8.98e-06
8.98e-06
8.98e-06
8.98e-06
8.98e-06
8.98e-06
8.98e-06
8.98e-06
8.96e-06
8.96e-06
8.96e-06
8.96e-06
8.96e-06
8.96e-06
8.96e-06
8.96e-06
8.96e-06
8.96e-06
8.96e-06
8.96e-06
8.96e-06
8.94e-06
8.94e-06
8.94e-06
8.94e-06
8.94e-06
8.94e-06
8.94e-06
8.94e-06
8.94e-06
8.94e-06
8.94e-06
8.94e-06
8.91e-06
8.94e-06
8.91e-06
8.91e-06
8.91e-06
8.91e-06
8.91e-06
8.91e-06
8.91e-06
8.91e-06
8.89e-06
8.89e-06
8.89e-06
8.89e-06
8.89e-06
8.89e-06
8.89e-06
8.89e-06
8.89e-06
8.89e-06
8.89e-06
8.89e-06
8.86e-06
8.86e-06
8.86e-06
8.86e-06
8.86e-06
8.86e-06
8.86e-06
8.86e-06
8.86e-06
8.86e-06
8.84e-06
8.84e-06
8.84e-06
8.84e-06
8.84e-06
8.84e-06
8.84e-06
8.84e-06
8.84e-06
8.84e-06
8.81e-06
8.81e-06
8.81e-06
8.81e-06
8.81e-06
8.81e-06
8.81e-06
8.81e-06
8.81e-06
8.81e-06
8.79e-06
8.81e-06
8.79e-06
8.79e-06
8.79e-06
8.79e-06
8.79e-06
8.79e-06
8.79e-06
8.79e-06
8.79e-06
8.79e-06
8.79e-06
8.79e-06
8.79e-06
8.79e-06
8.76e-06
8.76e-06
8.76e-06
8.76e-06
8.76e-06
8.76e-06
8.76e-06
8.76e-06
8.76e-06
8.76e-06
8.76e-06
8.76e-06
8.76e-06
8.76e-06
8.76e-06
8.76e-06
8.74e-06
8.76e-06
8.74e-06
8.76e-06
8.74e-06
8.76e-06
8.74e-06
8.76e-06
8.76e-06
8.74e-06
8.74e-06
8.74e-06
8.74e-06
8.74e-06
8.74e-06
8.74e-06
8.74e-06
8.74e-06
8.74e-06
8.74e-06
8.74e-06
8.74e-06
8.74e-06
8.72e-06
8.74e-06
8.72e-06
8.72e-06
8.72e-06
8.72e-06
8.74e-06
8.72e-06
8.72e-06
8.72e-06
8.72e-06
8.72e-06
8.72e-06
8.72e-06
8.72e-06
8.72e-06
8.72e-06
8.72e-06
8.72e-06
8.72e-06
8.72e-06
8.72e-06
8.72e-06
8.69e-06
8.69e-06
8.72e-06
8.72e-06
8.69e-06
8.69e-06
8.69e-06
8.69e-06
8.69e-06
8.69e-06
8.69e-06
8.69e-06
8.69e-06
8.69e-06
8.69e-06
8.69e-06
8.69e-06
8.69e-06
8.69e-06
8.69e-06
8.69e-06
8.69e-06
8.69e-06
8.69e-06
8.69e-06
8.69e-06
8.69e-06
8.69e-06
8.69e-06
8.69e-06
8.69e-06
8.69e-06
8.69e-06
8.69e-06
8.67e-06
8.67e-06
8.69e-06
8.67e-06
8.67e-06
8.67e-06
8.67e-06
8.67e-06
8.67e-06
8.67e-06
8.67e-06
8.67e-06
8.67e-06
8.67e-06
8.67e-06
8.67e-06
8.67e-06
8.67e-06
8.67e-06
8.67e-06
8.67e-06
8.67e-06
8.67e-06
8.67e-06
8.67e-06
8.67e-06
8.67e-06
8.67e-06
8.67e-06
8.67e-06
8.67e-06
8.67e-06
8.67e-06
8.67e-06
8.67e-06
8.67e-06
8.67e-06
8.67e-06
8.64e-06
8.67e-06
8.67e-06
8.67e-06
8.64e-06
8.64e-06
8.64e-06
8.64e-06
8.64e-06
8.64e-06
8.64e-06
8.64e-06
8.67e-06
8.64e-06
8.64e-06
8.64e-06
8.64e-06
8.64e-06
8.64e-06
8.67e-06
8.64e-06
8.64e-06
8.64e-06
8.67e-06
8.67e-06
8.67e-06
8.67e-06
8.67e-06
8.67e-06
8.67e-06
8.67e-06
8.67e-06
8.67e-06
8.67e-06
8.67e-06
8.67e-06
8.67e-06
8.67e-06
8.69e-06
8.69e-06
8.69e-06
8.69e-06
8.69e-06
8.72e-06
8.72e-06
8.72e-06
8.72e-06
8.74e-06
8.74e-06
8.74e-06
8.76e-06
8.76e-06
8.76e-06
8.76e-06
8.76e-06
8.79e-06
8.79e-06
8.79e-06
8.81e-06
8.81e-06
8.81e-06
8.84e-06
8.84e-06
8.86e-06
8.86e-06
8.86e-06
8.89e-06
8.89e-06
8.91e-06
8.91e-06
8.91e-06
8.94e-06
8.94e-06
8.96e-06
8.96e-06
8.96e-06
8.98e-06
8.98e-06
8.98e-06
9.01e-06
9.01e-06
9.03e-06
9.03e-06
9.06e-06
9.06e-06
9.06e-06
9.08e-06
9.08e-06
9.11e-06
9.11e-06
9.13e-06
9.13e-06
9.16e-06
9.16e-06
9.16e-06
9.18e-06
9.18e-06
9.2e-06
9.2e-06
9.2e-06
9.23e-06
9.23e-06
9.25e-06
9.25e-06
9.25e-06
9.28e-06
9.28e-06
9.28e-06
9.3e-06
9.3e-06
9.33e-06
9.33e-06
9.33e-06
9.35e-06
9.35e-06
9.35e-06
9.37e-06
9.37e-06
9.37e-06
9.37e-06
9.4e-06
9.4e-06
9.4e-06
9.42e-06
9.42e-06
9.42e-06
9.45e-06
9.45e-06
9.45e-06
9.45e-06
9.45e-06
9.47e-06
9.47e-06
9.47e-06
9.47e-06
9.5e-06
9.5e-06
9.5e-06
9.5e-06
9.52e-06
9.52e-06
9.52e-06
9.52e-06
9.52e-06
9.52e-06
9.55e-06
9.55e-06
9.55e-06
9.55e-06
9.55e-06
9.55e-06
9.55e-06
9.55e-06
9.55e-06
9.55e-06
9.57e-06
9.57e-06
9.57e-06
9.57e-06
9.57e-06
9.57e-06
9.57e-06
9.57e-06
9.59e-06
9.59e-06
9.59e-06
9.59e-06
9.59e-06
9.62e-06
9.62e-06
9.62e-06
9.62e-06
9.62e-06
9.62e-06
9.62e-06
9.62e-06
9.62e-06
9.62e-06
9.62e-06
9.62e-06
9.62e-06
9.62e-06
9.62e-06
9.62e-06
9.64e-06
9.62e-06
9.62e-06
9.62e-06
9.64e-06
9.64e-06
9.62e-06
9.62e-06
9.62e-06
9.62e-06
9.62e-06
9.62e-06
9.62e-06
9.62e-06
9.62e-06
9.62e-06
9.62e-06
9.62e-06
9.59e-06
9.62e-06
9.62e-06
9.59e-06
9.59e-06
9.62e-06
9.59e-06
9.59e-06
9.59e-06
9.59e-06
9.59e-06
9.59e-06
9.59e-06
9.59e-06
9.59e-06
9.57e-06
9.57e-06
9.57e-06
9.57e-06
9.57e-06
9.57e-06
9.57e-06
9.57e-06
9.57e-06
9.55e-06
9.55e-06
9.55e-06
9.55e-06
9.55e-06
9.55e-06
9.55e-06
9.55e-06
9.55e-06
9.55e-06
9.55e-06
9.55e-06
9.52e-06
9.55e-06
9.55e-06
9.52e-06
9.52e-06
9.52e-06
9.52e-06
9.52e-06
9.52e-06
9.52e-06
9.52e-06
9.52e-06
9.5e-06
9.52e-06
9.52e-06
9.5e-06
9.5e-06
9.5e-06
9.5e-06
9.5e-06
9.47e-06
9.5e-06
9.47e-06
9.47e-06
9.47e-06
9.47e-06
9.47e-06
9.47e-06
9.47e-06
9.47e-06
9.45e-06
9.45e-06
9.45e-06
9.45e-06
9.45e-06
9.45e-06
9.45e-06
9.45e-06
9.45e-06
9.45e-06
9.42e-06
9.42e-06
9.42e-06
9.42e-06
9.42e-06
9.42e-06
9.4e-06
9.4e-06
9.4e-06
9.4e-06
9.4e-06
9.4e-06
9.4e-06
9.4e-06
9.4e-06
9.37e-06
9.37e-06
9.37e-06
9.37e-06
9.37e-06
9.37e-06
9.37e-06
9.35e-06
9.37e-06
9.35e-06
9.35e-06
9.35e-06
9.35e-06
9.35e-06
9.35e-06
9.35e-06
9.35e-06
9.35e-06
9.33e-06
9.33e-06
9.33e-06
9.33e-06
9.33e-06
9.33e-06
9.33e-06
9.33e-06
9.33e-06
9.33e-06
9.33e-06
9.3e-06
9.3e-06
9.3e-06
9.3e-06
9.3e-06
9.3e-06
9.3e-06
9.28e-06
9.28e-06
9.28e-06
9.28e-06
9.28e-06
9.28e-06
9.28e-06
9.28e-06
9.28e-06
9.25e-06
9.25e-06
9.25e-06
9.25e-06
9.25e-06
9.25e-06
9.25e-06
9.25e-06
9.25e-06
9.25e-06
9.23e-06
9.25e-06
9.23e-06
9.23e-06
9.23e-06
9.23e-06
9.23e-06
9.23e-06
9.2e-06
9.2e-06
9.2e-06
9.2e-06
9.2e-06
9.2e-06
9.2e-06
9.2e-06
9.2e-06
9.2e-06
9.18e-06
9.18e-06
9.18e-06
9.18e-06
9.18e-06
9.18e-06
9.18e-06
9.18e-06
9.18e-06
9.18e-06
9.18e-06
9.18e-06
9.18e-06
9.18e-06
9.18e-06
9.16e-06
9.16e-06
9.16e-06
9.16e-06
9.16e-06
9.16e-06
9.16e-06
9.16e-06
9.16e-06
9.16e-06
9.16e-06
9.16e-06
9.16e-06
9.16e-06
9.16e-06
9.16e-06
9.16e-06
9.16e-06
9.16e-06
9.16e-06
9.16e-06
9.16e-06
9.16e-06
9.16e-06
9.16e-06
9.16e-06
9.16e-06
9.16e-06
9.16e-06
9.16e-06
9.16e-06
9.16e-06
9.16e-06
9.16e-06
9.16e-06
9.18e-06
9.16e-06
9.18e-06
9.18e-06
9.18e-06
9.18e-06
9.18e-06
9.18e-06
9.2e-06
9.2e-06
9.2e-06
9.2e-06
9.2e-06
9.2e-06
9.2e-06
9.23e-06
9.23e-06
9.23e-06
9.23e-06
9.25e-06
9.25e-06
9.25e-06
9.25e-06
9.25e-06
9.25e-06
9.25e-06
9.28e-06
9.28e-06
9.28e-06
9.28e-06
9.28e-06
9.28e-06
9.3e-06
9.3e-06
9.3e-06
9.3e-06
9.33e-06
9.33e-06
9.33e-06
9.33e-06
9.33e-06
9.33e-06
9.33e-06
9.35e-06
9.35e-06
9.37e-06
9.37e-06
9.37e-06
9.37e-06
9.37e-06
9.37e-06
9.4e-06
9.4e-06
9.4e-06
9.4e-06
9.4e-06
9.4e-06
9.4e-06
9.4e-06
9.42e-06
9.42e-06
9.42e-06
9.42e-06
9.42e-06
9.42e-06
9.42e-06
9.42e-06
9.45e-06
9.45e-06
9.45e-06
9.45e-06
9.45e-06
9.45e-06
9.45e-06
9.45e-06
9.45e-06
9.45e-06
9.45e-06
9.45e-06
9.45e-06
9.45e-06
9.47e-06
9.47e-06
9.47e-06
9.45e-06
9.47e-06
9.45e-06
9.47e-06
9.47e-06
9.47e-06
9.45e-06
9.47e-06
9.47e-06
9.47e-06
9.45e-06
9.47e-06
9.47e-06
9.47e-06
9.47e-06
9.47e-06
9.47e-06
9.47e-06
9.45e-06
9.47e-06
9.45e-06
9.47e-06
9.45e-06
9.45e-06
9.47e-06
9.45e-06
9.45e-06
9.45e-06
9.45e-06
9.45e-06
9.45e-06
9.45e-06
9.45e-06
9.45e-06
9.45e-06
9.45e-06
9.45e-06
9.45e-06
9.45e-06
9.45e-06
9.45e-06
9.45e-06
9.45e-06
9.42e-06
9.45e-06
9.42e-06
9.42e-06
9.42e-06
9.42e-06
9.42e-06
9.42e-06
9.42e-06
9.42e-06
9.4e-06
9.4e-06
9.4e-06
9.4e-06
9.4e-06
9.4e-06
9.4e-06
9.4e-06
9.4e-06
9.4e-06
9.4e-06
9.4e-06
9.37e-06
9.37e-06
9.37e-06
9.37e-06
9.37e-06
9.37e-06
9.37e-06
9.37e-06
9.37e-06
9.35e-06
9.35e-06
9.35e-06
9.35e-06
9.35e-06
9.35e-06
9.35e-06
9.35e-06
9.35e-06
9.35e-06
9.35e-06
9.33e-06
9.33e-06
9.33e-06
9.33e-06
9.33e-06
9.33e-06
9.33e-06
9.33e-06
9.33e-06
9.3e-06
9.33e-06
9.33e-06
9.3e-06
9.3e-06
9.3e-06
9.3e-06
9.3e-06
9.3e-06
9.3e-06
9.3e-06
9.3e-06
9.3e-06
9.3e-06
9.3e-06
9.28e-06
9.28e-06
9.28e-06
9.28e-06
9.28e-06
9.28e-06
9.28e-06
9.28e-06
9.28e-06
9.28e-06
9.28e-06
9.28e-06
9.28e-06
9.28e-06
9.28e-06
9.28e-06
9.28e-06
9.28e-06
9.28e-06
9.28e-06
9.28e-06
9.28e-06
9.28e-06
9.28e-06
9.28e-06
9.28e-06
9.28e-06
9.28e-06
9.28e-06
9.28e-06
9.28e-06
9.28e-06
9.28e-06
9.28e-06
9.28e-06
9.28e-06
9.28e-06
9.28e-06
9.28e-06
9.28e-06
9.28e-06
9.28e-06
9.28e-06
9.28e-06
9.28e-06
9.28e-06
9.28e-06
9.28e-06
9.28e-06
9.28e-06
9.28e-06
9.28e-06
9.28e-06
9.28e-06
9.28e-06
9.28e-06
9.28e-06
9.28e-06
9.28e-06
9.3e-06
9.28e-06
9.28e-06
9.3e-06
9.3e-06
9.3e-06
9.3e-06
9.3e-06
9.3e-06
9.3e-06
9.33e-06
9.33e-06
9.33e-06
9.33e-06
9.33e-06
9.33e-06
9.35e-06
9.35e-06
9.35e-06
9.35e-06
9.35e-06
9.35e-06
9.35e-06
9.35e-06
9.37e-06
9.37e-06
9.37e-06
9.37e-06
9.37e-06
9.37e-06
9.37e-06
9.4e-06
9.4e-06
9.4e-06
9.4e-06
9.4e-06
9.42e-06
9.42e-06
9.42e-06
9.42e-06
9.45e-06
9.45e-06
9.45e-06
9.45e-06
9.45e-06
9.45e-06
9.45e-06
9.45e-06
9.47e-06
9.47e-06
9.47e-06
9.47e-06
9.47e-06
9.47e-06
9.5e-06
9.5e-06
9.5e-06
9.5e-06
9.5e-06
9.52e-06
9.52e-06
9.52e-06
9.52e-06
9.52e-06
9.52e-06
9.52e-06
9.55e-06
9.55e-06
9.55e-06
9.55e-06
9.55e-06
9.55e-06
9.55e-06
9.55e-06
9.55e-06
9.55e-06
9.57e-06
9.55e-06
9.57e-06
9.57e-06
9.57e-06
9.57e-06
9.57e-06
9.57e-06
9.57e-06
9.57e-06
9.57e-06
9.57e-06
9.59e-06
9.59e-06
9.59e-06
9.59e-06
9.59e-06
9.59e-06
9.59e-06
9.59e-06
9.59e-06
9.59e-06
9.59e-06
9.59e-06
9.59e-06
9.59e-06
9.59e-06
9.59e-06
9.62e-06
9.59e-06
9.59e-06
9.62e-06
9.62e-06
9.62e-06
9.62e-06
9.62e-06
9.64e-06
9.62e-06
9.64e-06
9.64e-06
9.64e-06
9.64e-06
9.64e-06
9.64e-06
9.67e-06
9.67e-06
9.67e-06
9.67e-06
9.67e-06
9.67e-06
9.67e-06
9.67e-06
9.67e-06
9.67e-06
9.67e-06
9.67e-06
9.67e-06
9.67e-06
9.67e-06
9.67e-06
9.67e-06
9.67e-06
9.67e-06
9.67e-06
9.67e-06
9.67e-06
9.67e-06
9.67e-06
9.67e-06
9.67e-06
9.67e-06
9.64e-06
9.64e-06
9.64e-06
9.64e-06
9.64e-06
9.64e-06
9.64e-06
9.64e-06
9.64e-06
9.64e-06
9.62e-06
9.62e-06
9.62e-06
9.62e-06
9.62e-06
9.62e-06
9.62e-06
9.62e-06
9.62e-06
9.59e-06
9.59e-06
9.59e-06
9.59e-06
9.59e-06
9.59e-06
9.59e-06
9.59e-06
9.57e-06
9.57e-06
9.57e-06
9.57e-06
9.57e-06
9.57e-06
9.57e-06
9.55e-06
9.55e-06
9.55e-06
9.55e-06
9.55e-06
9.55e-06
9.55e-06
9.55e-06
9.55e-06
9.55e-06
9.52e-06
9.52e-06
9.52e-06
9.52e-06
9.52e-06
9.52e-06
9.52e-06
9.52e-06
9.5e-06
9.5e-06
9.5e-06
9.5e-06
9.5e-06
9.5e-06
9.47e-06
9.47e-06
9.47e-06
9.47e-06
9.47e-06
9.47e-06
9.47e-06
9.47e-06
9.45e-06
9.45e-06
9.45e-06
9.45e-06
9.45e-06
9.45e-06
9.45e-06
9.45e-06
9.45e-06
9.45e-06
9.42e-06
9.42e-06
9.42e-06
9.42e-06
9.42e-06
9.42e-06
9.42e-06
9.4e-06
9.4e-06
9.4e-06
9.4e-06
9.4e-06
9.4e-06
9.4e-06
9.4e-06
9.4e-06
9.4e-06
9.37e-06
9.37e-06
9.37e-06
9.37e-06
9.37e-06
9.37e-06
9.37e-06
9.37e-06
9.37e-06
9.37e-06
9.37e-06
9.37e-06
9.37e-06
9.37e-06
9.35e-06
9.35e-06
9.35e-06
9.35e-06
9.35e-06
9.35e-06
9.35e-06
9.35e-06
9.35e-06
9.35e-06
9.35e-06
9.35e-06
9.35e-06
9.35e-06
9.35e-06
9.35e-06
9.33e-06
9.33e-06
9.35e-06
9.33e-06
9.33e-06
9.33e-06
9.33e-06
9.33e-06
9.33e-06
9.33e-06
9.33e-06
9.33e-06
9.33e-06
9.33e-06
9.33e-06
9.33e-06
9.33e-06
9.33e-06
9.33e-06
9.33e-06
9.33e-06
9.33e-06
9.35e-06
9.33e-06
9.35e-06
9.35e-06
9.35e-06
9.35e-06
9.35e-06
9.35e-06
9.35e-06
9.35e-06
9.35e-06
9.35e-06
9.35e-06
9.35e-06
9.37e-06
9.37e-06
9.37e-06
9.37e-06
9.37e-06
9.37e-06
9.4e-06
9.37e-06
9.4e-06
9.4e-06
9.4e-06
9.4e-06
9.4e-06
9.4e-06
9.42e-06
9.42e-06
9.42e-06
9.42e-06
9.45e-06
9.45e-06
9.45e-06
9.45e-06
9.45e-06
9.45e-06
9.47e-06
9.47e-06
9.47e-06
9.47e-06
9.5e-06
9.5e-06
9.5e-06
9.5e-06
9.52e-06
9.52e-06
9.52e-06
9.52e-06
9.55e-06
9.55e-06
9.55e-06
9.55e-06
9.55e-06
9.57e-06
9.57e-06
9.57e-06
9.59e-06
9.59e-06
9.62e-06
9.59e-06
9.62e-06
9.62e-06
9.64e-06
9.64e-06
9.67e-06
9.67e-06
9.69e-06
9.69e-06
9.72e-06
9.72e-06
9.72e-06
9.74e-06
9.74e-06
9.74e-06
9.74e-06
9.77e-06
9.77e-06
9.77e-06
9.79e-06
9.79e-06
9.79e-06
9.79e-06
9.81e-06
9.81e-06
9.81e-06
9.84e-06
9.84e-06
9.84e-06
9.84e-06
9.84e-06
9.86e-06
9.86e-06
9.86e-06
9.86e-06
9.89e-06
9.89e-06
9.89e-06
9.89e-06
9.91e-06
9.91e-06
9.91e-06
9.91e-06
9.91e-06
9.91e-06
9.94e-06
9.94e-06
9.94e-06
9.94e-06
9.94e-06
9.96e-06
9.96e-06
9.96e-06
9.96e-06
9.96e-06
9.96e-06
9.96e-06
9.99e-06
9.99e-06
9.99e-06
9.99e-06
1.001e-05
1.001e-05
1.003e-05
1.003e-05
1.003e-05
1.003e-05
1.003e-05
1.003e-05
1.006e-05
1.006e-05
1.006e-05
1.006e-05
1.006e-05
1.006e-05
1.008e-05
1.006e-05
1.008e-05
1.008e-05
1.008e-05
1.008e-05
1.011e-05
1.011e-05
1.011e-05
1.011e-05
1.011e-05
1.011e-05
1.011e-05
1.011e-05
1.011e-05
1.013e-05
1.013e-05
1.013e-05
1.013e-05
1.013e-05
1.013e-05
1.013e-05
1.013e-05
1.016e-05
1.016e-05
1.016e-05
1.016e-05
1.016e-05
1.016e-05
1.016e-05
1.016e-05
1.018e-05
1.018e-05
1.018e-05
1.018e-05
1.018e-05
1.018e-05
1.018e-05
1.018e-05
1.021e-05
1.018e-05
1.021e-05
1.021e-05
1.021e-05
1.021e-05
1.021e-05
1.021e-05
1.021e-05
1.021e-05
1.023e-05
1.021e-05
1.023e-05
1.023e-05
1.023e-05
1.023e-05
1.023e-05
1.025e-05
1.025e-05
1.025e-05
1.025e-05
1.025e-05
1.028e-05
1.025e-05
1.028e-05
1.028e-05
1.028e-05
1.028e-05
1.028e-05
1.028e-05
1.028e-05
1.028e-05
1.028e-05
1.028e-05
1.028e-05
1.03e-05
1.028e-05
1.03e-05
1.028e-05
1.028e-05
1.03e-05
1.03e-05
1.028e-05
1.03e-05
1.03e-05
1.03e-05
1.03e-05
1.03e-05
1.03e-05
1.03e-05
1.03e-05
1.03e-05
1.03e-05
1.03e-05
1.03e-05
1.03e-05
1.03e-05
1.03e-05
1.03e-05
1.03e-05
1.03e-05
1.03e-05
1.03e-05
1.03e-05
1.03e-05
1.03e-05
1.028e-05
1.028e-05
1.03e-05
1.03e-05
1.028e-05
1.028e-05
1.028e-05
1.028e-05
1.028e-05
1.028e-05
1.028e-05
1.028e-05
1.028e-05
1.028e-05
1.028e-05
1.028e-05
1.028e-05
1.028e-05
1.025e-05
1.028e-05
1.025e-05
1.025e-05
1.025e-05
1.025e-05
1.025e-05
1.025e-05
1.025e-05
1.025e-05
1.025e-05
1.025e-05
1.025e-05
1.025e-05
1.025e-05
1.025e-05
1.025e-05
1.025e-05
1.025e-05
1.025e-05
1.025e-05
1.025e-05
1.025e-05
1.025e-05
1.025e-05
1.025e-05
1.023e-05
1.023e-05
1.023e-05
1.023e-05
1.023e-05
1.023e-05
1.023e-05
1.023e-05
1.023e-05
1.023e-05
1.023e-05
1.023e-05
1.023e-05
1.023e-05
1.023e-05
1.023e-05
1.023e-05
1.023e-05
1.023e-05
1.023e-05
1.023e-05
1.023e-05
1.023e-05
1.023e-05
1.023e-05
1.023e-05
1.023e-05
1.023e-05
1.021e-05
1.021e-05
1.021e-05
1.021e-05
1.021e-05
1.021e-05
1.021e-05
1.021e-05
1.018e-05
1.018e-05
1.018e-05
1.018e-05
1.018e-05
1.018e-05
1.018e-05
1.018e-05
1.018e-05
1.018e-05
1.018e-05
1.016e-05
1.016e-05
1.016e-05
1.016e-05
1.016e-05
1.016e-05
1.016e-05
1.016e-05
1.016e-05
1.013e-05
1.013e-05
1.013e-05
1.013e-05
1.013e-05
1.013e-05
1.013e-05
1.013e-05
1.011e-05
1.011e-05
1.011e-05
1.011e-05
1.011e-05
1.011e-05
1.011e-05
1.011e-05
1.008e-05
1.008e-05
1.008e-05
1.008e-05
1.006e-05
1.008e-05
1.008e-05
1.008e-05
1.006e-05
1.006e-05
1.006e-05
1.006e-05
1.006e-05
1.006e-05
1.006e-05
1.006e-05
1.006e-05
1.006e-05
1.003e-05
1.003e-05
1.003e-05
1.003e-05
1.003e-05
1.003e-05
1.003e-05
1.003e-05
1.003e-05
1.003e-05
1.001e-05
1.001e-05
1.001e-05
1.001e-05
1.001e-05
1.001e-05
9.99e-06
1.001e-05
9.99e-06
9.99e-06
9.99e-06
9.99e-06
9.99e-06
9.99e-06
9.99e-06
9.99e-06
9.96e-06
9.96e-06
9.96e-06
9.96e-06
9.96e-06
9.96e-06
9.96e-06
9.96e-06
9.96e-06
9.96e-06
9.94e-06
9.94e-06
9.94e-06
9.94e-06
9.94e-06
9.94e-06
9.94e-06
9.91e-06
9.91e-06
9.91e-06
9.91e-06
9.91e-06
9.91e-06
9.91e-06
9.91e-06
9.89e-06
9.91e-06
9.89e-06
9.89e-06
9.89e-06
9.89e-06
9.89e-06
9.89e-06
9.89e-06
9.86e-06
9.89e-06
9.86e-06
9.86e-06
9.86e-06
9.86e-06
9.86e-06
9.86e-06
9.86e-06
9.86e-06
9.84e-06
9.86e-06
9.84e-06
9.86e-06
9.84e-06
9.84e-06
9.84e-06
9.84e-06
9.84e-06
9.84e-06
9.84e-06
9.84e-06
9.84e-06
9.84e-06
9.84e-06
9.84e-06
9.84e-06
9.84e-06
9.81e-06
9.81e-06
9.81e-06
9.81e-06
9.81e-06
9.81e-06
9.81e-06
9.81e-06
9.81e-06
9.81e-06
9.79e-06
9.81e-06
9.79e-06
9.81e-06
9.79e-06
9.79e-06
9.79e-06
9.79e-06
9.79e-06
9.79e-06
9.79e-06
9.79e-06
9.79e-06
9.79e-06
9.79e-06
9.79e-06
9.77e-06
9.77e-06
9.77e-06
9.77e-06
9.77e-06
9.77e-06
9.77e-06
9.77e-06
9.77e-06
9.74e-06
9.77e-06
9.77e-06
9.74e-06
9.74e-06
9.74e-06
9.74e-06
9.74e-06
9.74e-06
9.74e-06
9.74e-06
9.74e-06
9.74e-06
9.74e-06
9.74e-06
9.74e-06
9.74e-06
9.74e-06
9.74e-06
9.72e-06
9.72e-06
9.72e-06
9.72e-06
9.72e-06
9.72e-06
9.72e-06
9.72e-06
9.72e-06
9.72e-06
9.72e-06
9.72e-06
9.69e-06
9.69e-06
9.69e-06
9.69e-06
9.69e-06
9.69e-06
9.69e-06
9.69e-06
9.69e-06
9.69e-06
9.69e-06
9.69e-06
9.69e-06
9.69e-06
9.67e-06
9.69e-06
9.69e-06
9.67e-06
9.67e-06
9.67e-06
9.67e-06
9.67e-06
9.67e-06
9.67e-06
9.67e-06
9.67e-06
9.67e-06
9.67e-06
9.67e-06
9.67e-06
9.67e-06
9.67e-06
9.67e-06
9.67e-06
9.67e-06
9.67e-06
9.64e-06
9.64e-06
9.64e-06
9.64e-06
9.64e-06
9.64e-06
9.64e-06
9.64e-06
9.64e-06
9.64e-06
9.64e-06
9.64e-06
9.64e-06
9.64e-06
9.64e-06
9.64e-06
9.62e-06
9.64e-06
9.62e-06
9.64e-06
9.62e-06
9.62e-06
9.62e-06
9.62e-06
9.62e-06
9.62e-06
9.62e-06
9.62e-06
9.62e-06
9.62e-06
9.62e-06
9.62e-06
9.59e-06
9.59e-06
9.62e-06
9.59e-06
9.59e-06
9.59e-06
9.59e-06
9.59e-06
9.59e-06
9.59e-06
9.59e-06
9.59e-06
9.59e-06
9.59e-06
9.59e-06
9.59e-06
9.59e-06
9.59e-06
9.59e-06
9.59e-06
9.59e-06
9.57e-06
9.59e-06
9.59e-06
9.57e-06
9.57e-06
9.57e-06
9.57e-06
9.57e-06
9.57e-06
9.57e-06
9.57e-06
9.57e-06
9.57e-06
9.57e-06
9.57e-06
9.55e-06
9.57e-06
9.57e-06
9.57e-06
9.55e-06
9.55e-06
9.57e-06
9.57e-06
9.55e-06
9.55e-06
9.55e-06
9.55e-06
9.55e-06
9.55e-06
9.55e-06
9.55e-06
9.55e-06
9.55e-06
9.55e-06
9.55e-06
9.55e-06
9.55e-06
9.55e-06
9.55e-06
9.55e-06
9.55e-06
9.55e-06
9.55e-06
9.55e-06
9.55e-06
9.55e-06
9.55e-06
9.55e-06
9.55e-06
9.55e-06
9.55e-06
9.55e-06
9.55e-06
9.55e-06
9.55e-06
9.55e-06
9.55e-06
9.55e-06
9.55e-06
9.55e-06
9.55e-06
9.55e-06
9.55e-06
9.55e-06
9.55e-06
9.55e-06
9.55e-06
9.55e-06
9.55e-06
9.55e-06
9.55e-06
9.52e-06
9.55e-06
9.55e-06
9.55e-06
9.55e-06
9.55e-06
9.55e-06
9.55e-06
9.52e-06
9.55e-06
9.55e-06
9.55e-06
9.55e-06
9.55e-06
9.55e-06
9.55e-06
9.55e-06
9.55e-06
9.55e-06
9.55e-06
9.55e-06
9.55e-06
9.55e-06
9.55e-06
9.55e-06
9.55e-06
9.55e-06
9.55e-06
9.55e-06
9.55e-06
9.55e-06
9.55e-06
9.55e-06
9.55e-06
9.55e-06
9.55e-06
9.55e-06
9.55e-06
9.55e-06
9.55e-06
9.55e-06
9.55e-06
9.55e-06
9.55e-06
9.55e-06
9.55e-06
9.55e-06
9.55e-06
9.55e-06
9.55e-06
9.55e-06
9.55e-06
9.55e-06
9.55e-06
9.55e-06
9.55e-06
9.55e-06
9.55e-06
9.55e-06
9.55e-06
9.55e-06
9.55e-06
9.55e-06
9.55e-06
9.55e-06
9.55e-06
9.55e-06
9.55e-06
9.55e-06
9.55e-06
9.55e-06
9.57e-06
9.57e-06
9.55e-06
9.57e-06
9.57e-06
9.57e-06
9.57e-06
9.57e-06
9.57e-06
9.57e-06
9.57e-06
9.57e-06
9.57e-06
9.57e-06
9.57e-06
9.57e-06
9.57e-06
9.57e-06
9.57e-06
9.57e-06
9.57e-06
9.57e-06
9.57e-06
9.57e-06
9.57e-06
9.59e-06
9.59e-06
9.59e-06
9.59e-06
9.59e-06
9.59e-06
9.59e-06
9.59e-06
9.59e-06
9.59e-06
9.59e-06
9.59e-06
9.59e-06
9.59e-06
9.59e-06
9.59e-06
9.59e-06
9.59e-06
9.59e-06
9.59e-06
9.59e-06
9.59e-06
9.59e-06
9.59e-06
9.59e-06
9.59e-06
9.59e-06
9.59e-06
9.59e-06
9.59e-06
9.59e-06
9.59e-06
9.59e-06
9.59e-06
9.59e-06
9.59e-06
9.59e-06
9.59e-06
9.59e-06
9.59e-06
9.59e-06
9.59e-06
9.59e-06
9.59e-06
9.59e-06
9.59e-06
9.59e-06
9.59e-06
9.59e-06
9.59e-06
9.59e-06
9.59e-06
9.59e-06
9.59e-06
9.59e-06
9.59e-06
9.59e-06
9.59e-06
9.59e-06
9.59e-06
9.59e-06
9.59e-06
9.59e-06
9.59e-06
9.59e-06
9.59e-06
9.59e-06
9.59e-06
9.59e-06
9.59e-06
9.59e-06
9.59e-06
9.59e-06
9.59e-06
9.59e-06
9.59e-06
9.59e-06
9.59e-06
9.59e-06
9.59e-06
9.59e-06
9.59e-06
9.59e-06
9.59e-06
9.59e-06
9.59e-06
9.59e-06
9.59e-06
9.57e-06
9.57e-06
9.57e-06
9.57e-06
9.57e-06
9.57e-06
9.57e-06
9.57e-06
9.57e-06
9.57e-06
9.57e-06
9.57e-06
9.57e-06
9.57e-06
9.57e-06
9.57e-06
9.57e-06
9.57e-06
9.57e-06
9.57e-06
9.57e-06
9.57e-06
9.57e-06
9.57e-06
9.57e-06
9.57e-06
9.57e-06
9.57e-06
9.57e-06
9.57e-06
9.57e-06
9.57e-06
9.57e-06
9.57e-06
9.57e-06
9.57e-06
9.57e-06
9.57e-06
9.57e-06
9.57e-06
9.55e-06
9.55e-06
9.55e-06
9.55e-06
9.55e-06
9.55e-06
9.55e-06
9.55e-06
9.55e-06
9.55e-06
9.55e-06
9.55e-06
9.55e-06
9.55e-06
9.55e-06
9.55e-06
9.55e-06
9.55e-06
9.55e-06
9.55e-06
9.55e-06
9.55e-06
9.55e-06
9.55e-06
9.55e-06
9.55e-06
9.55e-06
9.55e-06
9.52e-06
9.52e-06
9.55e-06
9.55e-06
9.52e-06
9.52e-06
9.52e-06
9.52e-06
9.52e-06
9.52e-06
9.52e-06
9.52e-06
9.52e-06
9.52e-06
9.52e-06
9.52e-06
9.52e-06
9.52e-06
9.52e-06
9.52e-06
9.52e-06
9.52e-06
9.52e-06
9.52e-06
9.5e-06
9.52e-06
9.52e-06
9.5e-06
9.5e-06
9.5e-06
9.5e-06
9.5e-06
9.5e-06
9.5e-06
9.5e-06
9.5e-06
9.5e-06
9.5e-06
9.5e-06
9.5e-06
9.5e-06
9.5e-06
9.5e-06
9.5e-06
9.5e-06
9.5e-06
9.5e-06
9.5e-06
9.5e-06
9.47e-06
9.47e-06
9.5e-06
9.47e-06
9.47e-06
9.47e-06
9.47e-06
9.47e-06
9.47e-06
9.47e-06
9.47e-06
9.47e-06
9.47e-06
9.47e-06
9.47e-06
9.47e-06
9.47e-06
9.47e-06
9.47e-06
9.47e-06
9.47e-06
9.47e-06
9.47e-06
9.45e-06
9.47e-06
9.45e-06
9.47e-06
9.45e-06
9.45e-06
9.45e-06
9.45e-06
9.45e-06
9.45e-06
9.45e-06
9.45e-06
9.45e-06
9.45e-06
9.45e-06
9.45e-06
9.45e-06
9.45e-06
9.45e-06
9.45e-06
9.45e-06
9.45e-06
9.45e-06
9.45e-06
9.45e-06
9.45e-06
9.45e-06
9.45e-06
9.45e-06
9.45e-06
9.45e-06
9.45e-06
9.45e-06
9.45e-06
9.45e-06
9.45e-06
9.42e-06
9.42e-06
9.45e-06
9.42e-06
9.42e-06
9.42e-06
9.42e-06
9.42e-06
9.42e-06
9.42e-06
9.42e-06
9.42e-06
9.42e-06
9.42e-06
9.42e-06
9.42e-06
9.42e-06
9.42e-06
9.42e-06
9.42e-06
9.42e-06
9.42e-06
9.42e-06
9.42e-06
9.42e-06
9.4e-06
9.4e-06
9.4e-06
9.4e-06
9.4e-06
9.4e-06
9.4e-06
9.4e-06
9.4e-06
9.4e-06
9.4e-06
9.4e-06
9.4e-06
9.4e-06
9.4e-06
9.4e-06
9.4e-06
9.4e-06
9.4e-06
9.4e-06
9.4e-06
9.4e-06
9.4e-06
9.4e-06
9.4e-06
9.4e-06
9.4e-06
9.4e-06
9.4e-06
9.4e-06
9.4e-06
9.4e-06
9.4e-06
9.4e-06
9.4e-06
9.4e-06
9.4e-06
9.4e-06
9.4e-06
9.4e-06
9.4e-06
9.4e-06
9.4e-06
9.37e-06
9.4e-06
9.37e-06
9.37e-06
9.37e-06
9.37e-06
9.37e-06
9.37e-06
9.37e-06
9.37e-06
9.37e-06
9.37e-06
9.37e-06
9.37e-06
9.37e-06
9.37e-06
9.37e-06
9.37e-06
9.37e-06
9.37e-06
9.37e-06
9.37e-06
9.37e-06
9.37e-06
9.37e-06
9.37e-06
9.37e-06
9.37e-06
9.37e-06
9.37e-06
9.37e-06
9.37e-06
9.37e-06
9.37e-06
9.37e-06
9.37e-06
9.37e-06
9.37e-06
9.37e-06
9.37e-06
9.35e-06
9.37e-06
9.37e-06
9.37e-06
9.37e-06
9.35e-06
9.35e-06
9.37e-06
9.35e-06
9.37e-06
9.35e-06
9.35e-06
9.35e-06
9.35e-06
9.35e-06
9.35e-06
9.35e-06
9.35e-06
9.35e-06
9.35e-06
9.35e-06
9.35e-06
9.35e-06
9.35e-06
9.35e-06
9.35e-06
9.35e-06
9.35e-06
9.35e-06
9.35e-06
9.35e-06
9.35e-06
9.35e-06
9.35e-06
9.35e-06
9.35e-06
9.35e-06
9.35e-06
9.35e-06
9.35e-06
9.35e-06
9.35e-06
9.35e-06
9.35e-06
9.35e-06
9.35e-06
9.35e-06
9.35e-06
9.35e-06
9.35e-06
9.35e-06
9.35e-06
9.35e-06
9.35e-06
9.35e-06
9.35e-06
9.35e-06
9.35e-06
9.35e-06
9.35e-06
9.35e-06
9.35e-06
9.35e-06
9.35e-06
9.35e-06
9.35e-06
9.35e-06
9.35e-06
9.35e-06
9.35e-06
9.35e-06
9.35e-06
9.35e-06
9.35e-06
9.35e-06
9.35e-06
9.35e-06
9.35e-06
9.35e-06
9.35e-06
9.35e-06
9.35e-06
9.35e-06
9.35e-06
9.35e-06
9.35e-06
9.35e-06
9.35e-06
9.35e-06
9.35e-06
9.35e-06
9.35e-06
9.35e-06
9.35e-06
9.35e-06
9.35e-06
9.35e-06
9.35e-06
9.35e-06
9.35e-06
9.35e-06
9.35e-06
9.35e-06
9.35e-06
9.35e-06
9.35e-06
9.35e-06
9.35e-06
9.35e-06
9.35e-06
9.35e-06
9.35e-06
9.35e-06
9.35e-06
9.35e-06
9.35e-06
9.35e-06
9.35e-06
9.35e-06
9.35e-06
9.33e-06
9.35e-06
9.35e-06
9.35e-06
9.33e-06
9.35e-06
9.35e-06
9.35e-06
9.33e-06
9.35e-06
9.35e-06
9.35e-06
9.33e-06
9.33e-06
9.35e-06
9.35e-06
9.33e-06
9.35e-06
9.35e-06
9.35e-06
9.35e-06
9.35e-06
9.35e-06
9.35e-06
9.33e-06
9.35e-06
9.35e-06
9.35e-06
9.33e-06
9.35e-06
9.35e-06
9.35e-06
9.35e-06
9.35e-06
9.35e-06
9.35e-06
9.33e-06
9.35e-06
9.33e-06
9.35e-06
9.35e-06
9.35e-06
9.35e-06
9.35e-06
9.35e-06
9.35e-06
9.35e-06
9.35e-06
9.35e-06
9.35e-06
9.35e-06
9.35e-06
9.35e-06
9.35e-06
9.35e-06
9.35e-06
9.35e-06
9.35e-06
9.35e-06
9.35e-06
9.35e-06
9.35e-06
9.35e-06
9.35e-06
9.35e-06
9.35e-06
9.35e-06
9.35e-06
9.35e-06
9.35e-06
9.35e-06
9.35e-06
9.35e-06
9.35e-06
9.35e-06
9.35e-06
9.35e-06
9.35e-06
9.35e-06
9.35e-06
9.35e-06
9.35e-06
9.35e-06
9.35e-06
9.35e-06
9.35e-06
9.35e-06
9.35e-06
9.35e-06
9.35e-06
9.35e-06
9.35e-06
9.35e-06
9.35e-06
9.35e-06
9.35e-06
9.35e-06
9.35e-06
9.37e-06
9.35e-06
9.35e-06
9.35e-06
9.37e-06
9.37e-06
9.37e-06
9.37e-06
9.37e-06
9.37e-06
9.37e-06
9.37e-06
9.37e-06
9.37e-06
9.37e-06
9.37e-06
9.37e-06
9.37e-06
9.37e-06
9.37e-06
9.37e-06
9.37e-06
9.37e-06
9.37e-06
9.37e-06
9.37e-06
9.37e-06
9.37e-06
9.4e-06
9.4e-06
9.4e-06
9.4e-06
9.4e-06
9.4e-06
9.4e-06
9.4e-06
9.4e-06
9.4e-06
9.4e-06
9.4e-06
9.4e-06
9.4e-06
9.4e-06
9.42e-06
9.42e-06
9.42e-06
9.42e-06
9.42e-06
9.42e-06
9.42e-06
9.42e-06
9.42e-06
9.42e-06
9.45e-06
9.45e-06
9.45e-06
9.45e-06
9.45e-06
9.45e-06
9.45e-06
9.45e-06
9.45e-06
9.45e-06
9.45e-06
9.45e-06
9.47e-06
9.45e-06
9.47e-06
9.47e-06
9.47e-06
9.47e-06
9.47e-06
9.47e-06
9.47e-06
9.47e-06
9.47e-06
9.47e-06
9.47e-06
9.47e-06
9.47e-06
9.5e-06
9.5e-06
9.5e-06
9.5e-06
9.5e-06
9.5e-06
9.5e-06
9.5e-06
9.5e-06
9.5e-06
9.5e-06
9.5e-06
9.52e-06
9.52e-06
9.52e-06
9.52e-06
9.52e-06
9.52e-06
9.52e-06
9.52e-06
9.52e-06
9.52e-06
9.52e-06
9.52e-06
9.52e-06
9.52e-06
9.52e-06
9.52e-06
9.55e-06
9.52e-06
9.52e-06
9.52e-06
9.55e-06
9.55e-06
9.55e-06
9.55e-06
9.55e-06
9.55e-06
9.55e-06
9.55e-06
9.55e-06
9.55e-06
9.55e-06
9.55e-06
9.55e-06
9.55e-06
9.55e-06
9.55e-06
9.55e-06
9.55e-06
9.55e-06
9.55e-06
9.55e-06
9.55e-06
9.55e-06
9.55e-06
9.55e-06
9.55e-06
9.55e-06
9.55e-06
9.55e-06
9.55e-06
9.55e-06
9.55e-06
9.57e-06
9.57e-06
9.57e-06
9.57e-06
9.57e-06
9.57e-06
9.57e-06
9.57e-06
9.57e-06
9.57e-06
9.57e-06
9.57e-06
9.57e-06
9.57e-06
9.57e-06
9.57e-06
9.57e-06
9.57e-06
9.57e-06
9.57e-06
9.57e-06
9.57e-06
9.57e-06
9.57e-06
9.57e-06
9.57e-06
9.57e-06
9.57e-06
9.57e-06
9.57e-06
9.57e-06
9.57e-06
9.57e-06
9.57e-06
9.57e-06
9.57e-06
9.57e-06
9.57e-06
9.57e-06
9.57e-06
9.57e-06
9.57e-06
9.57e-06
9.57e-06
9.57e-06
9.57e-06
9.59e-06
9.59e-06
9.59e-06
9.59e-06
9.59e-06
9.57e-06
9.59e-06
9.59e-06
9.59e-06
9.59e-06
9.59e-06
9.59e-06
9.59e-06
9.59e-06
9.59e-06
9.59e-06
9.59e-06
9.59e-06
9.59e-06
9.59e-06
9.59e-06
9.59e-06
9.59e-06
9.59e-06
9.59e-06
9.59e-06
9.59e-06
9.59e-06
9.59e-06
9.59e-06
9.57e-06
9.57e-06
9.57e-06
9.59e-06
9.57e-06
9.57e-06
9.57e-06
9.57e-06
9.57e-06
9.57e-06
9.57e-06
9.57e-06
9.57e-06
9.57e-06
9.57e-06
9.57e-06
9.57e-06
9.57e-06
9.57e-06
9.57e-06
9.57e-06
9.57e-06
9.57e-06
9.55e-06
9.55e-06
9.55e-06
9.55e-06
9.55e-06
9.55e-06
9.55e-06
9.55e-06
9.55e-06
9.55e-06
9.55e-06
9.55e-06
9.55e-06
9.55e-06
9.55e-06
9.55e-06
9.55e-06
9.55e-06
9.55e-06
9.55e-06
9.55e-06
9.55e-06
9.55e-06
9.55e-06
9.52e-06
9.55e-06
9.55e-06
9.52e-06
9.52e-06
9.52e-06
9.52e-06
9.52e-06
9.52e-06
9.52e-06
9.52e-06
9.52e-06
9.52e-06
9.52e-06
9.52e-06
9.52e-06
9.52e-06
9.52e-06
9.52e-06
9.52e-06
9.52e-06
9.52e-06
9.52e-06
9.5e-06
9.5e-06
9.5e-06
9.5e-06
9.5e-06
9.5e-06
9.5e-06
9.5e-06
9.5e-06
9.5e-06
9.5e-06
9.5e-06
9.5e-06
9.5e-06
9.5e-06
9.5e-06
9.47e-06
9.47e-06
9.47e-06
9.5e-06
9.47e-06
9.47e-06
9.47e-06
9.47e-06
9.47e-06
9.47e-06
9.47e-06
9.47e-06
9.47e-06
9.47e-06
9.47e-06
9.47e-06
9.47e-06
9.47e-06
9.47e-06
9.47e-06
9.45e-06
9.45e-06
9.47e-06
9.45e-06
9.45e-06
9.45e-06
9.45e-06
9.45e-06
9.45e-06
9.45e-06
9.45e-06
9.45e-06
9.45e-06
9.45e-06
9.45e-06
9.45e-06
9.45e-06
9.45e-06
9.45e-06
9.45e-06
9.45e-06
9.45e-06
9.45e-06
9.45e-06
9.45e-06
9.45e-06
9.45e-06
9.45e-06
9.42e-06
9.45e-06
9.45e-06
9.42e-06
9.42e-06
9.42e-06
9.42e-06
9.42e-06
9.42e-06
9.42e-06
9.42e-06
9.42e-06
9.42e-06
9.42e-06
9.42e-06
9.42e-06
9.42e-06
9.42e-06
9.42e-06
9.42e-06
9.42e-06
9.42e-06
9.42e-06
9.42e-06
9.42e-06
9.42e-06
9.42e-06
9.42e-06
9.42e-06
9.42e-06
9.42e-06
9.42e-06
9.42e-06
9.42e-06
9.42e-06
9.42e-06
9.42e-06
9.42e-06
9.42e-06
9.42e-06
9.42e-06
9.42e-06
9.42e-06
9.42e-06
9.42e-06
9.42e-06
9.42e-06
9.42e-06
9.42e-06
9.42e-06
9.42e-06
9.45e-06
9.42e-06
9.42e-06
9.45e-06
9.45e-06
9.42e-06
9.45e-06
9.45e-06
9.45e-06
9.45e-06
9.45e-06
9.45e-06
9.45e-06
9.45e-06
9.45e-06
9.45e-06
9.45e-06
9.45e-06
9.45e-06
9.45e-06
9.47e-06
9.45e-06
9.45e-06
9.47e-06
9.47e-06
9.47e-06
9.47e-06
9.47e-06
9.47e-06
9.47e-06
9.47e-06
9.47e-06
9.47e-06
9.47e-06
9.47e-06
9.47e-06
9.47e-06
9.47e-06
9.5e-06
9.5e-06
9.5e-06
9.5e-06
9.5e-06
9.5e-06
9.5e-06
9.5e-06
9.5e-06
9.5e-06
9.5e-06
9.52e-06
9.52e-06
9.52e-06
9.52e-06
9.52e-06
9.52e-06
9.52e-06
9.52e-06
9.52e-06
9.52e-06
9.52e-06
9.52e-06
9.52e-06
9.52e-06
9.52e-06
9.52e-06
9.52e-06
9.52e-06
9.52e-06
9.52e-06
9.52e-06
9.52e-06
9.52e-06
9.55e-06
9.52e-06
9.52e-06
9.55e-06
9.55e-06
9.52e-06
9.52e-06
9.55e-06
9.55e-06
9.55e-06
9.52e-06
9.55e-06
9.55e-06
9.55e-06
9.55e-06
9.55e-06
9.55e-06
9.55e-06
9.55e-06
9.55e-06
9.55e-06
9.55e-06
9.55e-06
9.55e-06
9.55e-06
9.55e-06
9.55e-06
9.55e-06
9.55e-06
9.55e-06
9.55e-06
9.55e-06
9.52e-06
9.52e-06
9.55e-06
9.52e-06
9.55e-06
9.52e-06
9.52e-06
9.55e-06
9.55e-06
9.52e-06
9.52e-06
9.52e-06
9.52e-06
9.52e-06
9.52e-06
9.52e-06
9.52e-06
9.52e-06
9.52e-06
9.52e-06
9.52e-06
9.52e-06
9.52e-06
9.52e-06
9.52e-06
9.52e-06
9.52e-06
9.52e-06
9.52e-06
9.52e-06
9.52e-06
9.52e-06
9.52e-06
9.5e-06
9.5e-06
9.5e-06
9.5e-06
9.5e-06
9.5e-06
9.5e-06
9.5e-06
9.5e-06
9.5e-06
9.5e-06
9.5e-06
9.5e-06
9.5e-06
9.5e-06
9.47e-06
9.5e-06
9.47e-06
9.47e-06
9.47e-06
9.47e-06
9.47e-06
9.47e-06
9.47e-06
9.47e-06
9.47e-06
9.47e-06
9.47e-06
9.47e-06
9.47e-06
9.47e-06
9.47e-06
9.47e-06
9.47e-06
9.45e-06
9.45e-06
9.45e-06
9.45e-06
9.45e-06
9.45e-06
9.45e-06
9.45e-06
9.45e-06
9.45e-06
9.45e-06
9.45e-06
9.45e-06
9.45e-06
9.45e-06
9.45e-06
9.45e-06
9.45e-06
9.45e-06
9.45e-06
9.45e-06
9.45e-06
9.42e-06
9.42e-06
9.42e-06
9.42e-06
9.42e-06
9.42e-06
9.42e-06
9.42e-06
9.42e-06
9.42e-06
9.42e-06
9.42e-06
9.42e-06
9.42e-06
9.42e-06
9.4e-06
9.42e-06
9.4e-06
9.42e-06
9.4e-06
9.4e-06
9.4e-06
9.4e-06
9.4e-06
9.4e-06
9.4e-06
9.4e-06
9.4e-06
9.4e-06
9.4e-06
9.4e-06
9.4e-06
9.4e-06
9.4e-06
9.4e-06
9.4e-06
9.4e-06
9.4e-06
9.4e-06
9.4e-06
9.4e-06
9.4e-06
9.4e-06
9.4e-06
9.4e-06
9.37e-06
9.4e-06
9.37e-06
9.37e-06
9.37e-06
9.37e-06
9.37e-06
9.37e-06
9.37e-06
9.37e-06
9.37e-06
9.37e-06
9.37e-06
9.37e-06
9.37e-06
9.37e-06
9.37e-06
9.37e-06
9.37e-06
9.37e-06
9.37e-06
9.37e-06
9.37e-06
9.37e-06
9.37e-06
9.37e-06
9.37e-06
9.37e-06
9.37e-06
9.37e-06
9.37e-06
9.35e-06
9.35e-06
9.35e-06
9.35e-06
9.35e-06
9.35e-06
9.35e-06
9.35e-06
9.35e-06
9.35e-06
9.35e-06
9.35e-06
9.35e-06
9.35e-06
9.35e-06
9.35e-06
9.35e-06
9.35e-06
9.35e-06
9.35e-06
9.35e-06
9.35e-06
9.35e-06
9.35e-06
9.35e-06
9.35e-06
9.35e-06
9.35e-06
9.35e-06
9.35e-06
9.35e-06
9.33e-06
9.35e-06
9.33e-06
9.35e-06
9.33e-06
9.33e-06
9.33e-06
9.35e-06
9.33e-06
9.33e-06
9.33e-06
9.33e-06
9.33e-06
9.33e-06
9.33e-06
9.33e-06
9.33e-06
9.33e-06
9.33e-06
9.33e-06
9.33e-06
9.33e-06
9.33e-06
9.33e-06
9.33e-06
9.33e-06
9.33e-06
9.33e-06
9.33e-06
9.33e-06
9.33e-06
9.33e-06
9.33e-06
9.33e-06
9.33e-06
9.33e-06
9.33e-06
9.33e-06
9.3e-06
9.33e-06
9.33e-06
9.3e-06
9.33e-06
9.33e-06
9.3e-06
9.3e-06
9.33e-06
9.3e-06
9.3e-06
9.3e-06
9.3e-06
9.3e-06
9.3e-06
9.3e-06
9.3e-06
9.3e-06
9.3e-06
9.3e-06
9.3e-06
9.3e-06
9.3e-06
9.3e-06
9.3e-06
9.3e-06
9.3e-06
9.3e-06
9.3e-06
9.3e-06
9.3e-06
9.3e-06
9.28e-06
9.3e-06
9.28e-06
9.28e-06
9.28e-06
9.28e-06
9.28e-06
9.28e-06
9.28e-06
9.28e-06
9.28e-06
9.28e-06
9.28e-06
9.28e-06
9.28e-06
9.28e-06
9.28e-06
9.28e-06
9.28e-06
9.28e-06
9.28e-06
9.28e-06
9.28e-06
9.28e-06
9.28e-06
9.28e-06
9.28e-06
9.28e-06
9.28e-06
9.28e-06
9.28e-06
9.28e-06
9.28e-06
9.28e-06
9.28e-06
9.25e-06
9.25e-06
9.28e-06
9.25e-06
9.25e-06
9.25e-06
9.25e-06
9.25e-06
9.25e-06
9.25e-06
9.25e-06
9.25e-06
9.25e-06
9.25e-06
9.25e-06
9.25e-06
9.25e-06
9.25e-06
9.25e-06
9.25e-06
9.25e-06
9.25e-06
9.25e-06
9.25e-06
9.25e-06
9.25e-06
9.25e-06
9.25e-06
9.23e-06
9.23e-06
9.23e-06
9.25e-06
9.23e-06
9.23e-06
9.25e-06
9.23e-06
9.23e-06
9.23e-06
9.23e-06
9.23e-06
9.23e-06
9.23e-06
9.23e-06
9.23e-06
9.23e-06
9.23e-06
9.23e-06
9.23e-06
9.23e-06
9.23e-06
9.23e-06
9.23e-06
9.23e-06
9.23e-06
9.23e-06
9.23e-06
9.23e-06
9.23e-06
9.23e-06
9.23e-06
9.2e-06
9.23e-06
9.23e-06
9.23e-06
9.23e-06
9.23e-06
9.23e-06
9.2e-06
9.2e-06
9.2e-06
9.23e-06
9.2e-06
9.2e-06
9.2e-06
9.2e-06
9.2e-06
9.2e-06
9.2e-06
9.2e-06
9.2e-06
9.2e-06
9.2e-06
9.2e-06
9.2e-06
9.2e-06
9.2e-06
9.2e-06
9.18e-06
9.2e-06
9.18e-06
9.2e-06
9.18e-06
9.2e-06
9.18e-06
9.2e-06
9.2e-06
9.18e-06
9.18e-06
9.2e-06
9.18e-06
9.18e-06
9.18e-06
9.18e-06
9.18e-06
9.18e-06
9.18e-06
9.2e-06
9.18e-06
9.18e-06
9.2e-06
9.2e-06
9.18e-06
9.18e-06
9.18e-06
9.2e-06
9.2e-06
9.18e-06
9.18e-06
9.18e-06
9.18e-06
9.18e-06
9.18e-06
9.18e-06
9.18e-06
9.18e-06
9.18e-06
9.18e-06
9.18e-06
9.18e-06
9.18e-06
9.18e-06
9.18e-06
9.18e-06
9.18e-06
9.18e-06
9.18e-06
9.18e-06
9.18e-06
9.18e-06
9.18e-06
9.18e-06
9.18e-06
9.18e-06
9.18e-06
9.18e-06
9.18e-06
9.18e-06
9.18e-06
9.18e-06
9.16e-06
9.18e-06
9.18e-06
9.18e-06
9.16e-06
9.18e-06
9.18e-06
9.16e-06
9.16e-06
9.16e-06
9.16e-06
9.16e-06
9.16e-06
9.16e-06
9.16e-06
9.16e-06
9.16e-06
9.16e-06
9.16e-06
9.16e-06
9.16e-06
9.16e-06
9.16e-06
9.16e-06
9.16e-06
9.16e-06
9.16e-06
9.16e-06
9.16e-06
9.16e-06
9.16e-06
9.16e-06
9.16e-06
9.16e-06
9.16e-06
9.16e-06
9.16e-06
9.16e-06
9.16e-06
9.16e-06
9.16e-06
9.16e-06
9.13e-06
9.16e-06
9.16e-06
9.16e-06
9.16e-06
9.16e-06
9.16e-06
9.16e-06
9.16e-06
9.16e-06
9.16e-06
9.16e-06
9.16e-06
9.16e-06
9.16e-06
9.16e-06
9.16e-06
9.16e-06
9.16e-06
9.16e-06
9.16e-06
9.16e-06
9.16e-06
9.18e-06
9.16e-06
9.16e-06
9.16e-06
9.16e-06
9.16e-06
9.16e-06
9.16e-06
9.16e-06
9.16e-06
9.16e-06
9.16e-06
9.16e-06
9.16e-06
9.16e-06
9.16e-06
9.16e-06
9.13e-06
9.16e-06
9.13e-06
9.13e-06
9.13e-06
9.13e-06
9.13e-06
9.13e-06
9.13e-06
9.13e-06
9.13e-06
9.13e-06
9.13e-06
9.13e-06
9.13e-06
9.13e-06
9.13e-06
9.13e-06
9.13e-06
9.13e-06
9.13e-06
9.13e-06
9.13e-06
9.13e-06
9.13e-06
9.13e-06
9.13e-06
9.13e-06
9.13e-06
9.13e-06
9.13e-06
9.13e-06
9.13e-06
9.13e-06
9.13e-06
9.13e-06
9.13e-06
9.13e-06
9.13e-06
9.13e-06
9.13e-06
9.13e-06
9.13e-06
9.13e-06
9.13e-06
9.13e-06
9.13e-06
9.13e-06
9.13e-06
9.13e-06
9.13e-06
9.13e-06
9.13e-06
9.13e-06
9.13e-06
9.13e-06
9.13e-06
9.13e-06
9.13e-06
9.13e-06
9.13e-06
9.13e-06
9.13e-06
9.13e-06
9.13e-06
9.13e-06
9.13e-06
9.13e-06
9.11e-06
9.13e-06
9.13e-06
9.13e-06
9.11e-06
9.11e-06
9.11e-06
9.11e-06
9.11e-06
9.11e-06
9.11e-06
9.11e-06
9.11e-06
9.11e-06
9.11e-06
9.11e-06
9.11e-06
9.11e-06
9.11e-06
9.11e-06
9.11e-06
9.11e-06
9.11e-06
9.11e-06
9.11e-06
9.11e-06
9.11e-06
9.11e-06
9.08e-06
9.11e-06
9.11e-06
9.11e-06
9.11e-06
9.11e-06
9.08e-06
9.11e-06
9.08e-06
9.08e-06
9.08e-06
9.11e-06
9.08e-06
9.08e-06
9.08e-06
9.08e-06
9.08e-06
9.08e-06
9.08e-06
9.08e-06
9.08e-06
9.08e-06
9.08e-06
9.08e-06
9.08e-06
9.08e-06
9.08e-06
9.08e-06
9.08e-06
9.08e-06
9.08e-06
9.08e-06
9.08e-06
9.08e-06
9.08e-06
9.08e-06
9.08e-06
9.08e-06
9.08e-06
9.11e-06
9.08e-06
9.11e-06
9.08e-06
9.08e-06
9.08e-06
9.08e-06
9.08e-06
9.08e-06
9.08e-06
9.08e-06
9.08e-06
9.08e-06
9.08e-06
9.08e-06
9.08e-06
9.08e-06
9.08e-06
9.08e-06
9.08e-06
9.08e-06
9.06e-06
9.06e-06
9.06e-06
9.08e-06
9.06e-06
9.06e-06
9.06e-06
9.08e-06
9.06e-06
9.06e-06
9.06e-06
9.08e-06
9.06e-06
9.08e-06
9.06e-06
9.06e-06
9.06e-06
9.06e-06
9.06e-06
9.06e-06
9.06e-06
9.06e-06
9.06e-06
9.06e-06
9.06e-06
9.08e-06
9.06e-06
9.08e-06
9.06e-06
9.08e-06
9.06e-06
9.08e-06
9.06e-06
9.06e-06
9.08e-06
9.08e-06
9.08e-06
9.08e-06
9.08e-06
9.08e-06
9.08e-06
9.08e-06
9.08e-06
9.08e-06
9.08e-06
9.08e-06
9.08e-06
9.08e-06
9.08e-06
9.08e-06
9.08e-06
9.08e-06
9.08e-06
9.08e-06
9.08e-06
9.08e-06
9.08e-06
9.08e-06
9.08e-06
9.08e-06
9.08e-06
9.08e-06
9.06e-06
9.08e-06
9.06e-06
9.08e-06
9.08e-06
9.08e-06
9.06e-06
9.08e-06
9.06e-06
9.08e-06
9.08e-06
9.08e-06
9.08e-06
9.08e-06
9.08e-06
9.08e-06
9.08e-06
9.08e-06
9.08e-06
9.08e-06
9.08e-06
9.08e-06
9.08e-06
9.08e-06
9.08e-06
9.08e-06
9.06e-06
9.08e-06
9.08e-06
9.08e-06
9.08e-06
9.08e-06
9.08e-06
9.08e-06
9.08e-06
9.08e-06
9.08e-06
9.08e-06
9.08e-06
9.08e-06
9.08e-06
9.08e-06
9.08e-06
9.08e-06
9.08e-06
9.08e-06
9.08e-06
9.08e-06
9.08e-06
9.08e-06
9.08e-06
9.08e-06
9.08e-06
9.08e-06
9.08e-06
9.08e-06
9.08e-06
9.08e-06
9.08e-06
9.08e-06
9.08e-06
9.08e-06
9.08e-06
9.08e-06
9.08e-06
9.08e-06
9.08e-06
9.08e-06
9.08e-06
9.08e-06
9.08e-06
9.08e-06
9.08e-06
9.08e-06
9.08e-06
9.08e-06
9.08e-06
9.08e-06
9.08e-06
9.08e-06
9.08e-06
9.08e-06
9.08e-06
9.08e-06
9.08e-06
9.08e-06
9.08e-06
9.08e-06
9.08e-06
9.08e-06
9.08e-06
9.08e-06
9.08e-06
9.08e-06
9.08e-06
9.08e-06
9.08e-06
9.08e-06
9.08e-06
9.08e-06
9.08e-06
9.08e-06
9.08e-06
9.08e-06
9.08e-06
9.08e-06
9.08e-06
9.08e-06
9.08e-06
9.08e-06
9.08e-06
9.08e-06
9.08e-06
9.08e-06
9.08e-06
9.08e-06
9.08e-06
9.08e-06
9.08e-06
9.08e-06
9.08e-06
9.08e-06
9.08e-06
9.08e-06
9.08e-06
9.08e-06
9.08e-06
9.08e-06
9.08e-06
9.08e-06
9.08e-06
9.08e-06
9.08e-06
9.08e-06
9.08e-06
9.08e-06
9.08e-06
9.08e-06
9.08e-06
9.08e-06
9.08e-06
9.08e-06
9.08e-06
9.08e-06
9.08e-06
9.08e-06
9.08e-06
9.08e-06
9.08e-06
9.08e-06
9.08e-06
9.08e-06
9.08e-06
9.08e-06
9.08e-06
9.08e-06
9.08e-06
9.08e-06
9.08e-06
9.08e-06
9.08e-06
9.08e-06
9.08e-06
9.08e-06
9.08e-06
9.08e-06
9.06e-06
9.08e-06
9.08e-06
9.08e-06
9.06e-06
9.08e-06
9.08e-06
9.08e-06
9.06e-06
9.06e-06
9.08e-06
9.08e-06
9.06e-06
9.08e-06
9.06e-06
9.08e-06
9.06e-06
9.06e-06
9.06e-06
9.06e-06
9.06e-06
9.06e-06
9.06e-06
9.08e-06
9.06e-06
9.06e-06
9.06e-06
9.06e-06
9.06e-06
9.06e-06
9.06e-06
9.06e-06
9.06e-06
9.06e-06
9.06e-06
9.06e-06
9.06e-06
9.06e-06
9.06e-06
9.06e-06
9.06e-06
9.06e-06
9.06e-06
9.06e-06
9.06e-06
9.06e-06
9.06e-06
9.06e-06
9.06e-06
9.06e-06
9.06e-06
9.06e-06
9.06e-06
9.06e-06
9.06e-06
9.06e-06
9.06e-06
9.06e-06
9.06e-06
9.06e-06
9.06e-06
9.06e-06
9.06e-06
9.06e-06
9.06e-06
9.06e-06
9.06e-06
9.06e-06
9.06e-06
9.06e-06
9.06e-06
9.06e-06
9.03e-06
9.06e-06
9.06e-06
9.06e-06
9.06e-06
9.06e-06
9.06e-06
9.06e-06
9.03e-06
9.06e-06
9.03e-06
9.06e-06
9.03e-06
9.03e-06
9.03e-06
9.03e-06
9.03e-06
9.03e-06
9.03e-06
9.03e-06
9.03e-06
9.03e-06
9.03e-06
9.03e-06
9.03e-06
9.03e-06
9.03e-06
9.03e-06
9.03e-06
9.03e-06
9.03e-06
9.03e-06
9.03e-06
9.03e-06
9.03e-06
9.03e-06
9.01e-06
9.03e-06
9.01e-06
9.03e-06
9.01e-06
9.03e-06
9.01e-06
9.03e-06
9.03e-06
9.01e-06
9.03e-06
9.01e-06
9.01e-06
9.01e-06
9.01e-06
9.01e-06
9.01e-06
9.01e-06
9.01e-06
9.01e-06
9.01e-06
9.01e-06
9.01e-06
9.01e-06
9.01e-06
9.01e-06
9.01e-06
9.01e-06
9.01e-06
9.01e-06
9.01e-06
9.01e-06
9.01e-06
9.01e-06
9.01e-06
9.01e-06
9.01e-06
9.01e-06
9.01e-06
9.01e-06
9.01e-06
9.01e-06
9.01e-06
9.01e-06
9.01e-06
9.01e-06
9.01e-06
9.01e-06
9.01e-06
9.01e-06
9.01e-06
9.01e-06
9.01e-06
9.01e-06
9.01e-06
9.01e-06
9.01e-06
9.01e-06
9.01e-06
9.01e-06
9.01e-06
9.01e-06
9.01e-06
9.01e-06
9.01e-06
9.01e-06
9.01e-06
9.01e-06
9.01e-06
9.01e-06
9.01e-06
9.01e-06
9.01e-06
9.01e-06
9.01e-06
9.01e-06
9.01e-06
9.01e-06
9.01e-06
9.01e-06
9.01e-06
9.01e-06
9.01e-06
9.01e-06
9.01e-06
9.01e-06
9.01e-06
9.01e-06
9.01e-06
9.01e-06
9.01e-06
9.01e-06
9.01e-06
9.01e-06
9.01e-06
9.01e-06
9.01e-06
9.01e-06
9.01e-06
9.01e-06
9.01e-06
9.01e-06
9.01e-06
9.01e-06
9.01e-06
9.01e-06
9.01e-06
9.01e-06
9.01e-06
9.01e-06
9.01e-06
9.01e-06
9.01e-06
9.01e-06
9.01e-06
9.01e-06
9.01e-06
9.01e-06
9.01e-06
9.01e-06
9.01e-06
9.01e-06
9.01e-06
9.01e-06
9.01e-06
9.01e-06
9.01e-06
9.01e-06
9.01e-06
9.01e-06
9.01e-06
9.01e-06
9.01e-06
9.01e-06
9.01e-06
9.01e-06
9.01e-06
9.01e-06
9.01e-06
9.01e-06
9.01e-06
9.01e-06
9.01e-06
9.01e-06
8.98e-06
9.01e-06
9.01e-06
9.01e-06
8.98e-06
9.01e-06
9.01e-06
9.01e-06
8.98e-06
9.01e-06
9.01e-06
9.01e-06
8.98e-06
9.01e-06
8.98e-06
9.01e-06
8.98e-06
8.98e-06
9.01e-06
9.01e-06
8.98e-06
8.98e-06
8.98e-06
8.98e-06
8.98e-06
8.98e-06
8.98e-06
8.98e-06
8.98e-06
8.98e-06
8.98e-06
8.98e-06
8.98e-06
8.98e-06
8.98e-06
8.98e-06
8.98e-06
8.98e-06
8.98e-06
8.98e-06
8.98e-06
8.98e-06
8.98e-06
8.98e-06
8.98e-06
8.98e-06
8.98e-06
8.98e-06
8.98e-06
8.98e-06
8.98e-06
8.98e-06
8.98e-06
8.98e-06
8.98e-06
8.98e-06
8.98e-06
8.98e-06
8.98e-06
8.98e-06
8.98e-06
8.98e-06
8.98e-06
8.98e-06
8.98e-06
8.98e-06
8.98e-06
8.98e-06
8.98e-06
8.98e-06
8.98e-06
8.98e-06
8.98e-06
8.98e-06
8.98e-06
8.98e-06
8.98e-06
8.96e-06
8.98e-06
8.98e-06
8.96e-06
8.96e-06
8.98e-06
8.98e-06
8.98e-06
8.98e-06
8.98e-06
8.98e-06
8.98e-06
8.98e-06
8.98e-06
8.98e-06
8.98e-06
8.98e-06
8.98e-06
8.98e-06
8.98e-06
8.98e-06
8.98e-06
8.98e-06
8.98e-06
8.98e-06
8.98e-06
8.98e-06
8.98e-06
8.98e-06
8.98e-06
8.98e-06
8.98e-06
9.01e-06
9.01e-06
9.01e-06
9.01e-06
9.01e-06
9.01e-06
9.01e-06
9.01e-06
9.01e-06
9.01e-06
9.03e-06
9.01e-06
9.03e-06
9.03e-06
9.03e-06
9.03e-06
9.06e-06
9.06e-06
9.06e-06
9.06e-06
9.06e-06
9.06e-06
9.06e-06
9.06e-06
9.08e-06
9.08e-06
9.08e-06
9.08e-06
9.08e-06
9.08e-06
9.11e-06
9.11e-06
9.11e-06
9.11e-06
9.13e-06
9.13e-06
9.13e-06
9.13e-06
9.13e-06
9.13e-06
9.16e-06
9.16e-06
9.16e-06
9.16e-06
9.18e-06
9.18e-06
9.18e-06
9.18e-06
9.18e-06
9.18e-06
9.18e-06
9.18e-06
9.2e-06
9.2e-06
9.2e-06
9.2e-06
9.2e-06
9.2e-06
9.23e-06
9.23e-06
9.23e-06
9.23e-06
9.23e-06
9.23e-06
9.25e-06
9.25e-06
9.25e-06
9.25e-06
9.25e-06
9.25e-06
9.28e-06
9.25e-06
9.28e-06
9.28e-06
9.28e-06
9.28e-06
9.28e-06
9.28e-06
9.28e-06
9.28e-06
9.3e-06
9.28e-06
9.3e-06
9.3e-06
9.3e-06
9.3e-06
9.3e-06
9.3e-06
9.3e-06
9.3e-06
9.33e-06
9.3e-06
9.33e-06
9.33e-06
9.33e-06
9.33e-06
9.33e-06
9.33e-06
9.33e-06
9.33e-06
9.33e-06
9.33e-06
9.33e-06
9.33e-06
9.33e-06
9.33e-06
9.35e-06
9.33e-06
9.35e-06
9.35e-06
9.35e-06
9.35e-06
9.35e-06
9.35e-06
9.35e-06
9.35e-06
9.35e-06
9.35e-06
9.35e-06
9.35e-06
9.35e-06
9.35e-06
9.35e-06
9.35e-06
9.35e-06
9.35e-06
9.35e-06
9.35e-06
9.35e-06
9.35e-06
9.35e-06
9.35e-06
9.35e-06
9.35e-06
9.35e-06
9.35e-06
9.35e-06
9.35e-06
9.35e-06
9.35e-06
9.35e-06
9.35e-06
9.35e-06
9.35e-06
9.35e-06
9.35e-06
9.35e-06
9.35e-06
9.35e-06
9.35e-06
9.35e-06
9.35e-06
9.35e-06
9.35e-06
9.35e-06
9.35e-06
9.35e-06
9.35e-06
9.35e-06
9.35e-06
9.35e-06
9.35e-06
9.35e-06
9.35e-06
9.35e-06
9.35e-06
9.35e-06
9.33e-06
9.35e-06
9.35e-06
9.35e-06
9.33e-06
9.35e-06
9.35e-06
9.35e-06
9.33e-06
9.35e-06
9.33e-06
9.35e-06
9.33e-06
9.33e-06
9.33e-06
9.35e-06
9.33e-06
9.33e-06
9.33e-06
9.33e-06
9.33e-06
9.33e-06
9.33e-06
9.33e-06
9.33e-06
9.33e-06
9.33e-06
9.33e-06
9.33e-06
9.33e-06
9.33e-06
9.33e-06
9.3e-06
9.33e-06
9.33e-06
9.33e-06
9.3e-06
9.33e-06
9.3e-06
9.33e-06
9.3e-06
9.3e-06
9.3e-06
9.3e-06
9.3e-06
9.3e-06
9.3e-06
9.3e-06
9.3e-06
9.3e-06
9.3e-06
9.3e-06
9.28e-06
9.3e-06
9.28e-06
9.3e-06
9.28e-06
9.28e-06
9.28e-06
9.28e-06
9.28e-06
9.28e-06
9.28e-06
9.28e-06
9.28e-06
9.28e-06
9.28e-06
9.28e-06
9.28e-06
9.28e-06
9.28e-06
9.28e-06
9.28e-06
9.28e-06
9.28e-06
9.28e-06
9.28e-06
9.28e-06
9.28e-06
9.28e-06
9.28e-06
9.28e-06
9.28e-06
9.28e-06
9.25e-06
9.28e-06
9.28e-06
9.28e-06
9.25e-06
9.28e-06
9.25e-06
9.28e-06
9.25e-06
9.25e-06
9.25e-06
9.25e-06
9.25e-06
9.25e-06
9.25e-06
9.25e-06
9.25e-06
9.25e-06
9.25e-06
9.25e-06
9.25e-06
9.25e-06
9.25e-06
9.25e-06
9.25e-06
9.25e-06
9.25e-06
9.25e-06
9.25e-06
9.25e-06
9.25e-06
9.25e-06
9.25e-06
9.25e-06
9.25e-06
9.25e-06
9.25e-06
9.25e-06
9.25e-06
9.25e-06
9.23e-06
9.25e-06
9.25e-06
9.25e-06
9.23e-06
9.25e-06
9.25e-06
9.25e-06
9.23e-06
9.23e-06
9.23e-06
9.23e-06
9.23e-06
9.23e-06
9.23e-06
9.23e-06
9.23e-06
9.23e-06
9.23e-06
9.23e-06
9.2e-06
9.23e-06
9.23e-06
9.23e-06
9.2e-06
9.23e-06
9.23e-06
9.23e-06
9.2e-06
9.2e-06
9.2e-06
9.2e-06
9.2e-06
9.2e-06
9.2e-06
9.2e-06
9.2e-06
9.2e-06
9.2e-06
9.2e-06
9.2e-06
9.2e-06
9.2e-06
9.2e-06
9.18e-06
9.18e-06
9.18e-06
9.2e-06
9.18e-06
9.18e-06
9.18e-06
9.18e-06
9.18e-06
9.18e-06
9.18e-06
9.18e-06
9.18e-06
9.18e-06
9.18e-06
9.18e-06
9.18e-06
9.18e-06
9.18e-06
9.18e-06
9.18e-06
9.18e-06
9.18e-06
9.18e-06
9.18e-06
9.18e-06
9.18e-06
9.18e-06
9.18e-06
9.16e-06
9.16e-06
9.18e-06
9.16e-06
9.16e-06
9.16e-06
9.16e-06
9.16e-06
9.16e-06
9.16e-06
9.16e-06
9.16e-06
9.16e-06
9.16e-06
9.16e-06
9.16e-06
9.16e-06
9.16e-06
9.16e-06
9.13e-06
9.16e-06
9.13e-06
9.16e-06
9.13e-06
9.13e-06
9.13e-06
9.13e-06
9.13e-06
9.13e-06
9.13e-06
9.13e-06
9.13e-06
9.13e-06
9.13e-06
9.13e-06
9.13e-06
9.13e-06
9.13e-06
9.13e-06
9.11e-06
9.11e-06
9.13e-06
9.13e-06
9.11e-06
9.11e-06
9.11e-06
9.11e-06
9.11e-06
9.11e-06
9.11e-06
9.11e-06
9.11e-06
9.11e-06
9.11e-06
9.11e-06
9.11e-06
9.11e-06
9.11e-06
9.11e-06
9.08e-06
9.11e-06
9.11e-06
9.11e-06
9.08e-06
9.08e-06
9.08e-06
9.08e-06
9.08e-06
9.08e-06
9.08e-06
9.11e-06
9.08e-06
9.08e-06
9.08e-06
9.08e-06
9.08e-06
9.08e-06
9.08e-06
9.08e-06
9.08e-06
9.08e-06
9.08e-06
9.08e-06
9.08e-06
9.08e-06
9.08e-06
9.08e-06
9.08e-06
9.08e-06
9.08e-06
9.08e-06
9.08e-06
9.08e-06
9.08e-06
9.08e-06
9.08e-06
9.08e-06
9.08e-06
9.08e-06
9.08e-06
9.08e-06
9.08e-06
9.08e-06
9.08e-06
9.08e-06
9.08e-06
9.08e-06
9.08e-06
9.08e-06
9.08e-06
9.08e-06
9.08e-06
9.08e-06
9.08e-06
9.08e-06
9.08e-06
9.08e-06
9.08e-06
9.08e-06
9.08e-06
9.08e-06
9.11e-06
9.11e-06
9.08e-06
9.11e-06
9.11e-06
9.11e-06
9.08e-06
9.11e-06
9.11e-06
9.11e-06
9.11e-06
9.11e-06
9.11e-06
9.11e-06
9.11e-06
9.11e-06
9.11e-06
9.13e-06
9.11e-06
9.11e-06
9.11e-06
9.13e-06
9.11e-06
9.13e-06
9.13e-06
9.13e-06
9.11e-06
9.13e-06
9.13e-06
9.13e-06
9.11e-06
9.13e-06
9.13e-06
9.13e-06
9.13e-06
9.13e-06
9.13e-06
9.13e-06
9.13e-06
9.13e-06
9.13e-06
9.13e-06
9.13e-06
9.13e-06
9.13e-06
9.13e-06
9.13e-06
9.16e-06
9.13e-06
9.13e-06
9.13e-06
9.13e-06
9.13e-06
9.13e-06
9.13e-06
9.16e-06
9.16e-06
9.16e-06
9.13e-06
9.16e-06
9.16e-06
9.16e-06
9.13e-06
9.16e-06
9.16e-06
9.16e-06
9.16e-06
9.16e-06
9.16e-06
9.16e-06
9.16e-06
9.16e-06
9.16e-06
9.16e-06
9.16e-06
9.16e-06
9.16e-06
9.16e-06
9.16e-06
9.16e-06
9.16e-06
9.16e-06
9.16e-06
9.16e-06
9.16e-06
9.16e-06
9.16e-06
9.16e-06
9.16e-06
9.16e-06
9.16e-06
9.16e-06
9.16e-06
9.18e-06
9.16e-06
9.16e-06
9.16e-06
9.16e-06
9.16e-06
9.16e-06
9.16e-06
9.16e-06
9.16e-06
9.16e-06
9.16e-06
9.18e-06
9.16e-06
9.16e-06
9.16e-06
9.18e-06
9.16e-06
9.16e-06
9.18e-06
9.18e-06
9.16e-06
9.18e-06
9.18e-06
9.18e-06
9.16e-06
9.18e-06
9.16e-06
9.18e-06
9.18e-06
9.18e-06
9.18e-06
9.18e-06
9.18e-06
9.18e-06
9.18e-06
9.18e-06
9.18e-06
9.18e-06
9.18e-06
9.18e-06
9.18e-06
9.18e-06
9.18e-06
9.18e-06
9.18e-06
9.18e-06
9.18e-06
9.18e-06
9.18e-06
9.18e-06
9.18e-06
9.18e-06
9.18e-06
9.18e-06
9.18e-06
9.18e-06
9.18e-06
9.18e-06
9.18e-06
9.18e-06
9.18e-06
9.18e-06
9.18e-06
9.18e-06
9.18e-06
9.18e-06
9.18e-06
9.18e-06
9.18e-06
9.18e-06
9.18e-06
9.18e-06
9.18e-06
9.18e-06
9.18e-06
9.18e-06
9.18e-06
9.18e-06
9.18e-06
9.18e-06
9.18e-06
9.18e-06
9.18e-06
9.18e-06
9.18e-06
9.18e-06
9.18e-06
9.18e-06
9.18e-06
9.18e-06
9.18e-06
9.18e-06
9.18e-06
9.18e-06
9.18e-06
9.2e-06
9.18e-06
9.18e-06
9.18e-06
9.18e-06
9.18e-06
9.18e-06
9.18e-06
9.2e-06
9.18e-06
9.18e-06
9.18e-06
9.2e-06
9.18e-06
9.18e-06
9.18e-06
9.18e-06
9.18e-06
9.18e-06
9.18e-06
9.18e-06
9.18e-06
9.18e-06
9.18e-06
9.18e-06
9.18e-06
9.18e-06
9.18e-06
9.18e-06
9.18e-06
9.18e-06
9.18e-06
9.18e-06
9.18e-06
9.18e-06
9.18e-06
9.18e-06
9.18e-06
9.18e-06
9.18e-06
9.18e-06
9.18e-06
9.18e-06
9.18e-06
9.18e-06
9.18e-06
9.18e-06
9.18e-06
9.18e-06
9.18e-06
9.18e-06
9.18e-06
9.18e-06
9.18e-06
9.18e-06
9.18e-06
9.18e-06
9.18e-06
9.18e-06
9.18e-06
9.2e-06
9.2e-06
9.18e-06
9.2e-06
9.2e-06
9.2e-06
9.2e-06
9.2e-06
9.2e-06
9.2e-06
9.2e-06
9.2e-06
9.2e-06
9.2e-06
9.2e-06
9.2e-06
9.2e-06
9.2e-06
9.2e-06
9.2e-06
9.23e-06
9.2e-06
9.23e-06
9.23e-06
9.23e-06
9.23e-06
9.23e-06
9.23e-06
9.23e-06
9.23e-06
9.23e-06
9.25e-06
9.25e-06
9.25e-06
9.25e-06
9.25e-06
9.25e-06
9.25e-06
9.25e-06
9.25e-06
9.28e-06
9.25e-06
9.25e-06
9.28e-06
9.28e-06
9.28e-06
9.28e-06
9.28e-06
9.28e-06
9.28e-06
9.28e-06
9.28e-06
9.28e-06
9.28e-06
9.28e-06
9.28e-06
9.28e-06
9.28e-06
9.28e-06
9.28e-06
9.3e-06
9.28e-06
9.28e-06
9.3e-06
9.3e-06
9.3e-06
9.28e-06
9.3e-06
9.3e-06
9.3e-06
9.3e-06
9.3e-06
9.3e-06
9.3e-06
9.3e-06
9.3e-06
9.3e-06
9.3e-06
9.3e-06
9.3e-06
9.3e-06
9.3e-06
9.3e-06
9.3e-06
9.3e-06
9.3e-06
9.3e-06
9.3e-06
9.3e-06
9.3e-06
9.3e-06
9.3e-06
9.3e-06
9.3e-06
9.3e-06
9.3e-06
9.3e-06
9.3e-06
9.3e-06
9.3e-06
9.33e-06
9.3e-06
9.3e-06
9.3e-06
9.33e-06
9.33e-06
9.3e-06
9.33e-06
9.33e-06
9.33e-06
9.3e-06
9.33e-06
9.33e-06
9.33e-06
9.3e-06
9.33e-06
9.33e-06
9.3e-06
9.3e-06
9.3e-06
9.3e-06
9.3e-06
9.3e-06
9.3e-06
9.33e-06
9.3e-06
9.3e-06
9.3e-06
9.3e-06
9.3e-06
9.3e-06
9.3e-06
9.3e-06
9.3e-06
9.3e-06
9.3e-06
9.3e-06
9.3e-06
9.28e-06
9.3e-06
9.3e-06
9.3e-06
9.28e-06
9.3e-06
9.3e-06
9.28e-06
9.3e-06
9.3e-06
9.3e-06
9.28e-06
9.3e-06
9.28e-06
9.28e-06
9.28e-06
9.28e-06
9.28e-06
9.28e-06
9.28e-06
9.28e-06
9.28e-06
9.28e-06
9.28e-06
9.28e-06
9.28e-06
9.28e-06
9.28e-06
9.28e-06
9.28e-06
9.28e-06
9.25e-06
9.28e-06
9.28e-06
9.28e-06
9.25e-06
9.25e-06
9.25e-06
9.25e-06
9.25e-06
9.25e-06
9.25e-06
9.25e-06
9.25e-06
9.25e-06
9.25e-06
9.25e-06
9.25e-06
9.25e-06
9.25e-06
9.25e-06
9.23e-06
9.23e-06
9.23e-06
9.23e-06
9.23e-06
9.23e-06
9.23e-06
9.23e-06
9.23e-06
9.23e-06
9.2e-06
9.23e-06
9.2e-06
9.2e-06
9.2e-06
9.23e-06
9.2e-06
9.2e-06
9.2e-06
9.2e-06
9.2e-06
9.2e-06
9.2e-06
9.2e-06
9.18e-06
9.2e-06
9.2e-06
9.18e-06
9.18e-06
9.18e-06
9.18e-06
9.18e-06
9.18e-06
9.18e-06
9.18e-06
9.18e-06
9.18e-06
9.18e-06
9.18e-06
9.18e-06
9.18e-06
9.18e-06
9.18e-06
9.18e-06
9.18e-06
9.18e-06
9.18e-06
9.18e-06
9.16e-06
9.16e-06
9.16e-06
9.16e-06
9.16e-06
9.16e-06
9.16e-06
9.16e-06
9.16e-06
9.16e-06
9.16e-06
9.16e-06
9.16e-06
9.16e-06
9.16e-06
9.13e-06
9.16e-06
9.13e-06
9.13e-06
9.13e-06
9.13e-06
9.13e-06
9.13e-06
9.13e-06
9.13e-06
9.13e-06
9.13e-06
9.13e-06
9.13e-06
9.13e-06
9.13e-06
9.13e-06
9.13e-06
9.13e-06
9.13e-06
9.13e-06
9.11e-06
9.11e-06
9.11e-06
9.11e-06
9.11e-06
9.11e-06
9.11e-06
9.11e-06
9.11e-06
9.11e-06
9.11e-06
9.11e-06
9.11e-06
9.11e-06
9.11e-06
9.11e-06
9.08e-06
9.11e-06
9.08e-06
9.11e-06
9.08e-06
9.11e-06
9.08e-06
9.08e-06
9.08e-06
9.08e-06
9.08e-06
9.08e-06
9.08e-06
9.08e-06
9.08e-06
9.08e-06
9.08e-06
9.08e-06
9.08e-06
9.08e-06
9.08e-06
9.08e-06
9.08e-06
9.08e-06
9.06e-06
9.08e-06
9.08e-06
9.08e-06
9.06e-06
9.08e-06
9.06e-06
9.06e-06
9.06e-06
9.06e-06
9.06e-06
9.06e-06
9.06e-06
9.06e-06
9.06e-06
9.06e-06
9.06e-06
9.06e-06
9.06e-06
9.06e-06
9.06e-06
9.06e-06
9.06e-06
9.06e-06
9.06e-06
9.06e-06
9.06e-06
9.06e-06
9.06e-06
9.06e-06
9.06e-06
9.06e-06
9.06e-06
9.06e-06
9.06e-06
9.06e-06
9.06e-06
9.06e-06
9.06e-06
9.06e-06
9.06e-06
9.06e-06
9.06e-06
9.08e-06
9.06e-06
9.08e-06
9.06e-06
9.08e-06
9.06e-06
9.06e-06
9.08e-06
9.08e-06
9.08e-06
9.08e-06
9.08e-06
9.08e-06
9.08e-06
9.08e-06
9.08e-06
9.11e-06
9.08e-06
9.11e-06
9.11e-06
9.11e-06
9.11e-06
9.11e-06
9.11e-06
9.13e-06
9.13e-06
9.13e-06
9.13e-06
9.13e-06
9.13e-06
9.16e-06
9.16e-06
9.16e-06
9.16e-06
9.16e-06
9.16e-06
9.16e-06
9.16e-06
9.18e-06
9.18e-06
9.18e-06
9.18e-06
9.18e-06
9.18e-06
9.2e-06
9.2e-06
9.2e-06
9.2e-06
9.2e-06
9.2e-06
9.23e-06
9.23e-06
9.23e-06
9.23e-06
9.23e-06
9.23e-06
9.25e-06
9.25e-06
9.25e-06
9.25e-06
9.25e-06
9.25e-06
9.28e-06
9.28e-06
9.28e-06
9.28e-06
9.28e-06
9.28e-06
9.3e-06
9.3e-06
9.3e-06
9.3e-06
9.3e-06
9.3e-06
9.3e-06
9.33e-06
9.33e-06
9.33e-06
9.33e-06
9.33e-06
9.35e-06
9.33e-06
9.33e-06
9.35e-06
9.35e-06
9.35e-06
9.35e-06
9.35e-06
9.35e-06
9.35e-06
9.35e-06
9.37e-06
9.37e-06
9.37e-06
9.37e-06
9.37e-06
9.37e-06
9.37e-06
9.37e-06
9.37e-06
9.37e-06
9.37e-06
9.37e-06
9.37e-06
9.4e-06
9.4e-06
9.37e-06
9.4e-06
9.4e-06
9.4e-06
9.4e-06
9.4e-06
9.4e-06
9.4e-06
9.4e-06
9.4e-06
9.42e-06
9.4e-06
9.4e-06
9.4e-06
9.42e-06
9.4e-06
9.4e-06
9.4e-06
9.42e-06
9.4e-06
9.4e-06
9.42e-06
9.42e-06
9.42e-06
9.42e-06
9.42e-06
9.42e-06
9.42e-06
9.42e-06
9.42e-06
9.42e-06
9.42e-06
9.42e-06
9.42e-06
9.42e-06
9.42e-06
9.42e-06
9.42e-06
9.42e-06
9.42e-06
9.4e-06
9.42e-06
9.42e-06
9.42e-06
9.4e-06
9.42e-06
9.42e-06
9.42e-06
9.42e-06
9.4e-06
9.42e-06
9.42e-06
9.4e-06
9.42e-06
9.42e-06
9.42e-06
9.4e-06
9.4e-06
9.4e-06
9.4e-06
9.4e-06
9.4e-06
9.4e-06
9.4e-06
9.4e-06
9.4e-06
9.4e-06
9.4e-06
9.4e-06
9.4e-06
9.4e-06
9.4e-06
9.4e-06
9.4e-06
9.4e-06
9.37e-06
9.4e-06
9.4e-06
9.4e-06
9.37e-06
9.37e-06
9.37e-06
9.37e-06
9.37e-06
9.37e-06
9.37e-06
9.37e-06
9.37e-06
9.37e-06
9.37e-06
9.37e-06
9.37e-06
9.37e-06
9.37e-06
9.37e-06
9.37e-06
9.35e-06
9.37e-06
9.35e-06
9.35e-06
9.35e-06
9.35e-06
9.35e-06
9.35e-06
9.35e-06
9.35e-06
9.35e-06
9.35e-06
9.35e-06
9.35e-06
9.35e-06
9.35e-06
9.35e-06
9.35e-06
9.33e-06
9.33e-06
9.33e-06
9.33e-06
9.33e-06
9.33e-06
9.33e-06
9.33e-06
9.33e-06
9.33e-06
9.33e-06
9.33e-06
9.33e-06
9.3e-06
9.33e-06
9.3e-06
9.3e-06
9.3e-06
9.3e-06
9.3e-06
9.3e-06
9.3e-06
9.3e-06
9.3e-06
9.28e-06
9.28e-06
9.28e-06
9.28e-06
9.28e-06
9.28e-06
9.28e-06
9.28e-06
9.28e-06
9.28e-06
9.28e-06
9.28e-06
9.28e-06
9.28e-06
9.28e-06
9.28e-06
9.25e-06
9.25e-06
9.25e-06
9.25e-06
9.25e-06
9.25e-06
9.25e-06
9.25e-06
9.25e-06
9.25e-06
9.25e-06
9.25e-06
9.25e-06
9.25e-06
9.23e-06
9.23e-06
9.23e-06
9.23e-06
9.23e-06
9.23e-06
9.23e-06
9.23e-06
9.23e-06
9.23e-06
9.2e-06
9.23e-06
9.23e-06
9.2e-06
9.2e-06
9.2e-06
9.2e-06
9.2e-06
9.2e-06
9.2e-06
9.2e-06
9.2e-06
9.2e-06
9.2e-06
9.2e-06
9.2e-06
9.2e-06
9.2e-06
9.2e-06
9.2e-06
9.2e-06
9.18e-06
9.2e-06
9.2e-06
9.2e-06
9.18e-06
9.18e-06
9.2e-06
9.2e-06
9.2e-06
9.2e-06
9.2e-06
9.2e-06
9.2e-06
9.2e-06
9.2e-06
9.2e-06
9.2e-06
9.2e-06
9.2e-06
9.2e-06
9.2e-06
9.2e-06
9.2e-06
9.2e-06
9.18e-06
9.2e-06
9.2e-06
9.2e-06
9.18e-06
9.18e-06
9.18e-06
9.18e-06
9.18e-06
9.18e-06
9.18e-06
9.18e-06
9.18e-06
9.18e-06
9.18e-06
9.18e-06
9.18e-06
9.18e-06
9.18e-06
9.18e-06
9.18e-06
9.18e-06
9.18e-06
9.18e-06
9.18e-06
9.18e-06
9.18e-06
9.18e-06
9.18e-06
9.18e-06
9.18e-06
9.18e-06
9.16e-06
9.18e-06
9.18e-06
9.18e-06
9.16e-06
9.18e-06
9.18e-06
9.18e-06
9.16e-06
9.16e-06
9.16e-06
9.18e-06
9.16e-06
9.16e-06
9.16e-06
9.16e-06
9.16e-06
9.16e-06
9.16e-06
9.16e-06
9.16e-06
9.16e-06
9.16e-06
9.16e-06
9.16e-06
9.16e-06
9.16e-06
9.16e-06
9.13e-06
9.16e-06
9.16e-06
9.16e-06
9.16e-06
9.16e-06
9.16e-06
9.16e-06
9.13e-06
9.16e-06
9.16e-06
9.16e-06
9.13e-06
9.16e-06
9.16e-06
9.16e-06
9.13e-06
9.13e-06
9.13e-06
9.16e-06
9.13e-06
9.13e-06
9.13e-06
9.13e-06
9.13e-06
9.13e-06
9.13e-06
9.13e-06
9.13e-06
9.13e-06
9.13e-06
9.13e-06
9.13e-06
9.13e-06
9.13e-06
9.13e-06
9.13e-06
9.13e-06
9.13e-06
9.13e-06
9.13e-06
9.13e-06
9.13e-06
9.13e-06
9.13e-06
9.13e-06
9.13e-06
9.13e-06
9.11e-06
9.13e-06
9.13e-06
9.13e-06
9.11e-06
9.13e-06
9.13e-06
9.13e-06
9.11e-06
9.13e-06
9.13e-06
9.13e-06
9.11e-06
9.13e-06
9.13e-06
9.13e-06
9.11e-06
9.13e-06
9.11e-06
9.13e-06
9.13e-06
9.13e-06
9.13e-06
9.11e-06
9.11e-06
9.11e-06
9.11e-06
9.13e-06
9.11e-06
9.13e-06
9.13e-06
9.13e-06
9.11e-06
9.13e-06
9.13e-06
9.13e-06
9.13e-06
9.13e-06
9.13e-06
9.13e-06
9.13e-06
9.13e-06
9.13e-06
9.13e-06
9.13e-06
9.13e-06
9.13e-06
9.13e-06
9.13e-06
9.13e-06
9.13e-06
9.13e-06
9.13e-06
9.13e-06
9.13e-06
9.16e-06
9.16e-06
9.16e-06
9.16e-06
9.16e-06
9.16e-06
9.16e-06
9.16e-06
9.16e-06
9.16e-06
9.16e-06
9.16e-06
9.18e-06
9.18e-06
9.18e-06
9.18e-06
9.18e-06
9.18e-06
9.18e-06
9.18e-06
9.2e-06
9.2e-06
9.2e-06
9.2e-06
9.2e-06
9.2e-06
9.2e-06
9.2e-06
9.23e-06
9.23e-06
9.23e-06
9.23e-06
9.23e-06
9.25e-06
9.23e-06
9.25e-06
9.25e-06
9.25e-06
9.25e-06
9.25e-06
9.25e-06
9.28e-06
9.28e-06
9.28e-06
9.28e-06
9.28e-06
9.28e-06
9.28e-06
9.3e-06
9.3e-06
9.28e-06
9.3e-06
9.3e-06
9.3e-06
9.3e-06
9.33e-06
9.33e-06
9.33e-06
9.33e-06
9.33e-06
9.33e-06
9.33e-06
9.33e-06
9.35e-06
9.35e-06
9.33e-06
9.35e-06
9.35e-06
9.35e-06
9.35e-06
9.35e-06
9.35e-06
9.35e-06
9.35e-06
9.35e-06
9.37e-06
9.37e-06
9.37e-06
9.37e-06
9.37e-06
9.37e-06
9.37e-06
9.37e-06
9.37e-06
9.37e-06
9.37e-06
9.37e-06
9.37e-06
9.37e-06
9.37e-06
9.37e-06
9.37e-06
9.4e-06
9.37e-06
9.4e-06
9.4e-06
9.4e-06
9.4e-06
9.4e-06
9.4e-06
9.4e-06
9.4e-06
9.4e-06
9.4e-06
9.4e-06
9.4e-06
9.4e-06
9.4e-06
9.4e-06
9.4e-06
9.4e-06
9.4e-06
9.4e-06
9.4e-06
9.4e-06
9.4e-06
9.4e-06
9.4e-06
9.4e-06
9.4e-06
9.4e-06
9.4e-06
9.4e-06
9.4e-06
9.4e-06
9.4e-06
9.4e-06
9.4e-06
9.4e-06
9.4e-06
9.4e-06
9.4e-06
9.4e-06
9.4e-06
9.4e-06
9.4e-06
9.4e-06
9.37e-06
9.4e-06
9.4e-06
9.4e-06
9.37e-06
9.37e-06
9.37e-06
9.37e-06
9.37e-06
9.37e-06
9.37e-06
9.37e-06
9.37e-06
9.37e-06
9.37e-06
9.37e-06
9.37e-06
9.37e-06
9.37e-06
9.37e-06
9.37e-06
9.37e-06
9.37e-06
9.37e-06
9.35e-06
9.37e-06
9.37e-06
9.37e-06
9.35e-06
9.35e-06
9.35e-06
9.35e-06
9.35e-06
9.35e-06
9.35e-06
9.35e-06
9.35e-06
9.35e-06
9.35e-06
9.35e-06
9.35e-06
9.35e-06
9.35e-06
9.35e-06
9.35e-06
9.35e-06
9.35e-06
9.35e-06
9.33e-06
9.35e-06
9.35e-06
9.35e-06
9.33e-06
9.35e-06
9.35e-06
9.35e-06
9.33e-06
9.33e-06
9.33e-06
9.35e-06
9.33e-06
9.33e-06
9.33e-06
9.35e-06
9.33e-06
9.35e-06
9.35e-06
9.35e-06
9.33e-06
9.35e-06
9.35e-06
9.35e-06
9.35e-06
9.35e-06
9.35e-06
9.35e-06
9.35e-06
9.35e-06
9.35e-06
9.35e-06
9.35e-06
9.35e-06
9.37e-06
9.37e-06
9.37e-06
9.37e-06
9.37e-06
9.37e-06
9.37e-06
9.37e-06
9.37e-06
9.37e-06
9.37e-06
9.4e-06
9.4e-06
9.4e-06
9.4e-06
9.4e-06
9.4e-06
9.42e-06
9.4e-06
9.4e-06
9.42e-06
9.42e-06
9.42e-06
9.45e-06
9.45e-06
9.45e-06
9.45e-06
9.45e-06
9.45e-06
9.45e-06
9.45e-06
9.47e-06
9.47e-06
9.47e-06
9.47e-06
9.47e-06
9.47e-06
9.5e-06
9.5e-06
9.5e-06
9.5e-06
9.52e-06
9.52e-06
9.52e-06
9.52e-06
9.52e-06
9.52e-06
9.52e-06
9.55e-06
9.55e-06
9.55e-06
9.55e-06
9.55e-06
9.55e-06
9.55e-06
9.55e-06
9.55e-06
9.57e-06
9.57e-06
9.57e-06
9.57e-06
9.57e-06
9.57e-06
9.59e-06
9.59e-06
9.59e-06
9.59e-06
9.59e-06
9.59e-06
9.62e-06
9.59e-06
9.62e-06
9.62e-06
9.62e-06
9.62e-06
9.62e-06
9.64e-06
9.64e-06
9.64e-06
9.64e-06
9.64e-06
9.64e-06
9.64e-06
9.64e-06
9.64e-06
9.67e-06
9.64e-06
9.67e-06
9.67e-06
9.67e-06
9.67e-06
9.67e-06
9.67e-06
9.67e-06
9.67e-06
9.67e-06
9.67e-06
9.67e-06
9.67e-06
9.67e-06
9.69e-06
9.69e-06
9.69e-06
9.69e-06
9.69e-06
9.69e-06
9.69e-06
9.69e-06
9.69e-06
9.72e-06
9.72e-06
9.72e-06
9.72e-06
9.72e-06
9.72e-06
9.72e-06
9.72e-06
9.74e-06
9.74e-06
9.74e-06
9.74e-06
9.74e-06
9.74e-06
9.74e-06
9.74e-06
9.74e-06
9.74e-06
9.77e-06
9.77e-06
9.77e-06
9.77e-06
9.77e-06
9.77e-06
9.77e-06
9.77e-06
9.79e-06
9.79e-06
9.79e-06
9.79e-06
9.79e-06
9.79e-06
9.81e-06
9.79e-06
9.81e-06
9.81e-06
9.81e-06
9.81e-06
9.81e-06
9.84e-06
9.84e-06
9.84e-06
9.84e-06
9.84e-06
9.84e-06
9.84e-06
9.84e-06
9.84e-06
9.86e-06
9.86e-06
9.86e-06
9.86e-06
9.86e-06
9.86e-06
9.86e-06
9.86e-06
9.86e-06
9.86e-06
9.86e-06
9.86e-06
9.86e-06
9.86e-06
9.89e-06
9.89e-06
9.89e-06
9.89e-06
9.89e-06
9.89e-06
9.89e-06
9.89e-06
9.89e-06
9.89e-06
9.91e-06
9.91e-06
9.89e-06
9.91e-06
9.91e-06
9.91e-06
9.91e-06
9.91e-06
9.91e-06
9.91e-06
9.91e-06
9.91e-06
9.91e-06
9.91e-06
9.91e-06
9.91e-06
9.91e-06
9.91e-06
9.91e-06
9.91e-06
9.91e-06
9.91e-06
9.91e-06
9.91e-06
9.91e-06
9.91e-06
9.91e-06
9.91e-06
9.91e-06
9.91e-06
9.91e-06
9.91e-06
9.91e-06
9.91e-06
9.91e-06
9.91e-06
9.91e-06
9.91e-06
9.91e-06
9.91e-06
9.91e-06
9.91e-06
9.91e-06
9.91e-06
9.91e-06
9.91e-06
9.91e-06
9.91e-06
9.91e-06
9.89e-06
9.91e-06
9.91e-06
9.91e-06
9.89e-06
9.91e-06
9.91e-06
9.91e-06
9.89e-06
9.89e-06
9.91e-06
9.89e-06
9.89e-06
9.89e-06
9.89e-06
9.89e-06
9.89e-06
9.89e-06
9.89e-06
9.89e-06
9.86e-06
9.89e-06
9.89e-06
9.89e-06
9.86e-06
9.86e-06
9.86e-06
9.86e-06
9.86e-06
9.86e-06
9.86e-06
9.86e-06
9.86e-06
9.86e-06
9.84e-06
9.86e-06
9.84e-06
9.84e-06
9.84e-06
9.84e-06
9.84e-06
9.84e-06
9.84e-06
9.84e-06
9.84e-06
9.84e-06
9.84e-06
9.84e-06
9.81e-06
9.81e-06
9.81e-06
9.81e-06
9.81e-06
9.81e-06
9.81e-06
9.81e-06
9.81e-06
9.79e-06
9.79e-06
9.79e-06
9.79e-06
9.79e-06
9.79e-06
9.79e-06
9.77e-06
9.79e-06
9.79e-06
9.77e-06
9.77e-06
9.77e-06
9.77e-06
9.77e-06
9.77e-06
9.77e-06
9.77e-06
9.77e-06
9.74e-06
9.74e-06
9.74e-06
9.74e-06
9.74e-06
9.74e-06
9.74e-06
9.74e-06
9.74e-06
9.74e-06
9.74e-06
9.74e-06
9.72e-06
9.72e-06
9.72e-06
9.72e-06
9.72e-06
9.72e-06
9.72e-06
9.72e-06
9.69e-06
9.69e-06
9.69e-06
9.69e-06
9.69e-06
9.69e-06
9.69e-06
9.69e-06
9.67e-06
9.67e-06
9.67e-06
9.67e-06
9.67e-06
9.67e-06
9.67e-06
9.67e-06
9.67e-06
9.67e-06
9.67e-06
9.67e-06
9.64e-06
9.67e-06
9.64e-06
9.67e-06
9.64e-06
9.64e-06
9.64e-06
9.64e-06
9.64e-06
9.64e-06
9.64e-06
9.64e-06
9.62e-06
9.62e-06
9.62e-06
9.62e-06
9.62e-06
9.62e-06
9.62e-06
9.62e-06
9.62e-06
9.62e-06
9.59e-06
9.59e-06
9.59e-06
9.59e-06
9.59e-06
9.59e-06
9.59e-06
9.59e-06
9.59e-06
9.59e-06
9.59e-06
9.59e-06
9.59e-06
9.59e-06
9.57e-06
9.57e-06
9.57e-06
9.57e-06
9.57e-06
9.57e-06
9.57e-06
9.57e-06
9.57e-06
9.57e-06
9.57e-06
9.57e-06
9.55e-06
9.55e-06
9.55e-06
9.55e-06
9.55e-06
9.55e-06
9.55e-06
9.55e-06
9.55e-06
9.55e-06
9.55e-06
9.55e-06
9.55e-06
9.55e-06
9.55e-06
9.55e-06
9.52e-06
9.52e-06
9.52e-06
9.52e-06
9.52e-06
9.52e-06
9.52e-06
9.52e-06
9.52e-06
9.52e-06
9.52e-06
9.52e-06
9.52e-06
9.52e-06
9.52e-06
9.52e-06
9.5e-06
9.5e-06
9.5e-06
9.5e-06
9.5e-06
9.5e-06
9.5e-06
9.5e-06
9.5e-06
9.5e-06
9.5e-06
9.5e-06
9.5e-06
9.5e-06
9.5e-06
9.5e-06
9.5e-06
9.5e-06
9.5e-06
9.5e-06
9.5e-06
9.5e-06
9.5e-06
9.5e-06
9.5e-06
9.5e-06
9.5e-06
9.5e-06
9.5e-06
9.5e-06
9.5e-06
9.5e-06
9.5e-06
9.5e-06
9.5e-06
9.5e-06
9.5e-06
9.5e-06
9.5e-06
9.5e-06
9.5e-06
9.5e-06
9.5e-06
9.5e-06
9.47e-06
9.5e-06
9.5e-06
9.5e-06
9.5e-06
9.5e-06
9.5e-06
9.52e-06
9.5e-06
9.5e-06
9.52e-06
9.52e-06
9.5e-06
9.5e-06
9.5e-06
9.52e-06
9.5e-06
9.5e-06
9.5e-06
9.5e-06
9.5e-06
9.5e-06
9.5e-06
9.5e-06
9.5e-06
9.5e-06
9.5e-06
9.5e-06
9.5e-06
9.5e-06
9.5e-06
9.5e-06
9.5e-06
9.5e-06
9.5e-06
9.5e-06
9.47e-06
9.5e-06
9.47e-06
9.5e-06
9.47e-06
9.5e-06
9.47e-06
9.5e-06
9.47e-06
9.47e-06
9.47e-06
9.47e-06
9.47e-06
9.47e-06
9.47e-06
9.47e-06
9.47e-06
9.47e-06
9.47e-06
9.47e-06
9.47e-06
9.47e-06
9.47e-06
9.47e-06
9.47e-06
9.47e-06
9.47e-06
9.47e-06
9.47e-06
9.47e-06
9.47e-06
9.47e-06
9.47e-06
9.47e-06
9.47e-06
9.47e-06
9.47e-06
9.47e-06
9.47e-06
9.47e-06
9.47e-06
9.47e-06
9.47e-06
9.47e-06
9.45e-06
9.47e-06
9.45e-06
9.47e-06
9.45e-06
9.47e-06
9.45e-06
9.45e-06
9.45e-06
9.45e-06
9.45e-06
9.45e-06
9.45e-06
9.45e-06
9.45e-06
9.45e-06
9.45e-06
9.45e-06
9.45e-06
9.45e-06
9.45e-06
9.45e-06
9.45e-06
9.45e-06
9.45e-06
9.45e-06
9.45e-06
9.45e-06
9.45e-06
9.45e-06
9.45e-06
9.45e-06
9.45e-06
9.45e-06
9.45e-06
9.47e-06
9.47e-06
9.45e-06
9.45e-06
9.47e-06
9.47e-06
9.47e-06
9.47e-06
9.47e-06
9.47e-06
9.47e-06
9.47e-06
9.47e-06
9.47e-06
9.47e-06
9.5e-06
9.5e-06
9.5e-06
9.5e-06
9.5e-06
9.52e-06
9.52e-06
9.52e-06
9.52e-06
9.52e-06
9.52e-06
9.52e-06
9.55e-06
9.55e-06
9.55e-06
9.55e-06
9.55e-06
9.55e-06
9.55e-06
9.57e-06
9.57e-06
9.59e-06
9.59e-06
9.59e-06
9.59e-06
9.59e-06
9.59e-06
9.62e-06
9.62e-06
9.64e-06
9.64e-06
9.64e-06
9.64e-06
9.64e-06
9.67e-06
9.67e-06
9.67e-06
9.67e-06
9.67e-06
9.69e-06
9.69e-06
9.69e-06
9.69e-06
9.72e-06
9.72e-06
9.72e-06
9.72e-06
9.74e-06
9.74e-06
9.74e-06
9.74e-06
9.74e-06
9.74e-06
9.77e-06
9.77e-06
9.77e-06
9.77e-06
9.77e-06
9.77e-06
9.79e-06
9.79e-06
9.79e-06
9.79e-06
9.79e-06
9.79e-06
9.81e-06
9.81e-06
9.81e-06
9.81e-06
9.81e-06
9.84e-06
9.84e-06
9.84e-06
9.84e-06
9.84e-06
9.84e-06
9.84e-06
9.84e-06
9.86e-06
9.86e-06
9.86e-06
9.86e-06
9.86e-06
9.86e-06
9.89e-06
9.89e-06
9.89e-06
9.91e-06
9.91e-06
9.91e-06
9.91e-06
9.91e-06
9.91e-06
9.94e-06
9.91e-06
9.94e-06
9.94e-06
9.94e-06
9.94e-06
9.94e-06
9.94e-06
9.94e-06
9.94e-06
9.94e-06
9.94e-06
9.94e-06
9.94e-06
9.94e-06
9.94e-06
9.94e-06
9.94e-06
9.94e-06
9.94e-06
9.94e-06
9.94e-06
9.94e-06
9.94e-06
9.94e-06
9.94e-06
9.94e-06
9.94e-06
9.94e-06
9.94e-06
9.94e-06
9.94e-06
9.94e-06
9.94e-06
9.94e-06
9.94e-06
9.94e-06
9.94e-06
9.94e-06
9.94e-06
9.94e-06
9.91e-06
9.94e-06
9.91e-06
9.91e-06
9.91e-06
9.91e-06
9.91e-06
9.91e-06
9.91e-06
9.91e-06
9.91e-06
9.91e-06
9.91e-06
9.91e-06
9.91e-06
9.91e-06
9.89e-06
9.89e-06
9.89e-06
9.89e-06
9.89e-06
9.89e-06
9.89e-06
9.89e-06
9.89e-06
9.86e-06
9.89e-06
9.89e-06
9.86e-06
9.86e-06
9.86e-06
9.86e-06
9.86e-06
9.86e-06
9.86e-06
9.86e-06
9.86e-06
9.86e-06
9.86e-06
9.86e-06
9.86e-06
9.86e-06
9.86e-06
9.86e-06
9.86e-06
9.86e-06
9.86e-06
9.86e-06
9.84e-06
9.84e-06
9.86e-06
9.86e-06
9.84e-06
9.86e-06
9.86e-06
9.86e-06
9.86e-06
9.86e-06
9.86e-06
9.86e-06
9.86e-06
9.86e-06
9.86e-06
9.86e-06
9.86e-06
9.89e-06
9.89e-06
9.89e-06
9.89e-06
9.89e-06
9.89e-06
9.89e-06
9.89e-06
9.91e-06
9.91e-06
9.91e-06
9.91e-06
9.91e-06
9.91e-06
9.94e-06
9.94e-06
9.94e-06
9.94e-06
9.94e-06
9.94e-06
9.94e-06
9.96e-06
9.96e-06
9.96e-06
9.96e-06
9.96e-06
9.96e-06
9.96e-06
9.99e-06
9.99e-06
9.99e-06
9.99e-06
9.99e-06
9.99e-06
1.001e-05
1.001e-05
1.001e-05
1.001e-05
1.001e-05
1.001e-05
1.003e-05
1.003e-05
1.003e-05
1.003e-05
1.003e-05
1.003e-05
1.006e-05
1.006e-05
1.006e-05
1.006e-05
1.006e-05
1.006e-05
1.006e-05
1.006e-05
1.008e-05
1.006e-05
1.008e-05
1.008e-05
1.008e-05
1.008e-05
1.008e-05
1.008e-05
1.008e-05
1.008e-05
1.008e-05
1.008e-05
1.011e-05
1.011e-05
1.011e-05
1.011e-05
1.011e-05
1.011e-05
1.011e-05
1.011e-05
1.011e-05
1.011e-05
1.011e-05
1.011e-05
1.011e-05
1.011e-05
1.011e-05
1.011e-05
1.013e-05
1.013e-05
1.013e-05
1.013e-05
1.013e-05
1.013e-05
1.013e-05
1.013e-05
1.013e-05
1.013e-05
1.013e-05
1.013e-05
1.013e-05
1.013e-05
1.013e-05
1.013e-05
1.013e-05
1.013e-05
1.013e-05
1.013e-05
1.013e-05
1.013e-05
1.013e-05
1.013e-05
1.013e-05
1.013e-05
1.013e-05
1.013e-05
1.013e-05
1.013e-05
1.013e-05
1.011e-05
1.011e-05
1.011e-05
1.011e-05
1.011e-05
1.011e-05
1.011e-05
1.011e-05
1.011e-05
1.011e-05
1.011e-05
1.011e-05
1.011e-05
1.011e-05
1.011e-05
1.011e-05
1.011e-05
1.011e-05
1.011e-05
1.011e-05
1.011e-05
1.011e-05
1.008e-05
1.011e-05
1.008e-05
1.008e-05
1.008e-05
1.008e-05
1.008e-05
1.008e-05
1.006e-05
1.006e-05
1.006e-05
1.006e-05
1.006e-05
1.006e-05
1.006e-05
1.006e-05
1.006e-05
1.006e-05
1.006e-05
1.006e-05
1.006e-05
1.006e-05
1.003e-05
1.003e-05
1.003e-05
1.003e-05
1.003e-05
1.003e-05
1.003e-05
1.001e-05
1.001e-05
1.001e-05
1.001e-05
1.001e-05
1.001e-05
1.001e-05
9.99e-06
9.99e-06
9.99e-06
9.99e-06
9.99e-06
9.99e-06
9.99e-06
9.99e-06
9.99e-06
9.96e-06
9.99e-06
9.96e-06
9.96e-06
9.96e-06
9.96e-06
9.96e-06
9.96e-06
9.96e-06
9.96e-06
9.96e-06
9.96e-06
9.94e-06
9.94e-06
9.94e-06
9.94e-06
9.94e-06
9.94e-06
9.94e-06
9.91e-06
9.91e-06
9.91e-06
9.91e-06
9.89e-06
9.89e-06
9.89e-06
9.89e-06
9.86e-06
9.86e-06
9.86e-06
9.86e-06
9.86e-06
9.86e-06
9.86e-06
9.86e-06
9.84e-06
9.84e-06
9.84e-06
9.84e-06
9.84e-06
9.84e-06
9.84e-06
9.84e-06
9.84e-06
9.84e-06
9.84e-06
9.84e-06
9.84e-06
9.84e-06
9.84e-06
9.84e-06
9.81e-06
9.81e-06
9.81e-06
9.81e-06
9.81e-06
9.81e-06
9.81e-06
9.81e-06
9.81e-06
9.81e-06
9.81e-06
9.81e-06
9.81e-06
9.81e-06
9.81e-06
9.81e-06
9.79e-06
9.79e-06
9.79e-06
9.79e-06
9.79e-06
9.79e-06
9.79e-06
9.79e-06
9.79e-06
9.79e-06
9.77e-06
9.77e-06
9.77e-06
9.77e-06
9.77e-06
9.77e-06
9.74e-06
9.77e-06
9.77e-06
9.77e-06
9.74e-06
9.74e-06
9.74e-06
9.74e-06
9.74e-06
9.74e-06
9.74e-06
9.74e-06
9.74e-06
9.74e-06
9.74e-06
9.74e-06
9.74e-06
9.74e-06
9.74e-06
9.74e-06
9.74e-06
9.74e-06
9.74e-06
9.74e-06
9.74e-06
9.74e-06
9.74e-06
9.74e-06
9.74e-06
9.74e-06
9.74e-06
9.74e-06
9.72e-06
9.72e-06
9.72e-06
9.74e-06
9.72e-06
9.74e-06
9.74e-06
9.74e-06
9.77e-06
9.77e-06
9.79e-06
9.84e-06
9.84e-06
9.89e-06
9.91e-06
9.96e-06
9.99e-06
1.001e-05
1.006e-05
1.008e-05
1.011e-05
1.013e-05
1.013e-05
1.016e-05
1.018e-05
1.018e-05
1.021e-05
1.021e-05
1.021e-05
1.021e-05
1.018e-05
1.016e-05
1.013e-05
1.011e-05
1.008e-05
1.003e-05
1.001e-05
9.96e-06
9.96e-06
9.91e-06
9.89e-06
9.86e-06
9.84e-06
9.84e-06
9.81e-06
9.79e-06
9.79e-06
9.77e-06
9.74e-06
9.74e-06
9.74e-06
9.74e-06
9.72e-06
9.72e-06
9.69e-06
9.69e-06
9.69e-06
9.69e-06
9.67e-06
9.67e-06
9.67e-06
9.67e-06
9.67e-06
9.67e-06
9.67e-06
9.67e-06
9.67e-06
9.67e-06
9.64e-06
9.67e-06
9.67e-06
9.64e-06
9.64e-06
9.64e-06
9.64e-06
9.64e-06
9.64e-06
9.64e-06
9.64e-06
9.64e-06
9.64e-06
9.64e-06
9.64e-06
9.64e-06
9.62e-06
9.62e-06
9.62e-06
9.62e-06
9.62e-06
9.62e-06
9.62e-06
9.62e-06
9.62e-06
9.62e-06
9.62e-06
9.59e-06
9.59e-06
9.59e-06
9.59e-06
9.59e-06
9.59e-06
9.59e-06
9.59e-06
9.59e-06
9.59e-06
9.59e-06
9.59e-06
9.59e-06
9.57e-06
9.57e-06
9.57e-06
9.57e-06
9.57e-06
9.57e-06
9.57e-06
9.57e-06
9.57e-06
9.57e-06
9.57e-06
9.57e-06
9.57e-06
9.57e-06
9.57e-06
9.57e-06
9.55e-06
9.57e-06
9.57e-06
9.57e-06
9.55e-06
9.57e-06
9.55e-06
9.57e-06
9.55e-06
9.57e-06
9.55e-06
9.55e-06
9.55e-06
9.55e-06
9.55e-06
9.55e-06
9.55e-06
9.55e-06
9.55e-06
9.55e-06
9.55e-06
9.55e-06
9.55e-06
9.55e-06
9.55e-06
9.55e-06
9.55e-06
9.55e-06
9.55e-06
9.55e-06
9.55e-06
9.55e-06
9.55e-06
9.55e-06
9.55e-06
9.55e-06
9.55e-06
9.55e-06
9.55e-06
9.55e-06
9.55e-06
9.55e-06
9.55e-06
9.55e-06
9.55e-06
9.55e-06
9.55e-06
9.55e-06
9.55e-06
9.55e-06
9.55e-06
9.55e-06
9.55e-06
9.52e-06
9.55e-06
9.55e-06
9.52e-06
9.55e-06
9.55e-06
9.55e-06
9.52e-06
9.52e-06
9.52e-06
9.52e-06
9.55e-06
9.52e-06
9.52e-06
9.55e-06
9.52e-06
9.52e-06
9.52e-06
9.52e-06
9.52e-06
9.52e-06
9.52e-06
9.52e-06
9.52e-06
9.52e-06
9.52e-06
9.52e-06
9.52e-06
9.52e-06
9.52e-06
9.52e-06
9.52e-06
9.52e-06
9.52e-06
9.52e-06
9.52e-06
9.52e-06
9.52e-06
9.52e-06
9.52e-06
9.52e-06
9.52e-06
9.52e-06
9.52e-06
9.52e-06
9.52e-06
9.52e-06
9.52e-06
9.52e-06
9.52e-06
9.52e-06
9.52e-06
9.52e-06
9.5e-06
9.52e-06
9.52e-06
9.52e-06
9.52e-06
9.52e-06
9.5e-06
9.5e-06
9.5e-06
9.5e-06
9.5e-06
9.5e-06
9.5e-06
9.5e-06
9.5e-06
9.5e-06
9.5e-06
9.5e-06
9.5e-06
9.5e-06
9.5e-06
9.5e-06
9.5e-06
9.5e-06
9.5e-06
9.5e-06
9.5e-06
9.5e-06
9.5e-06
9.5e-06
9.5e-06
9.5e-06
9.5e-06
9.5e-06
9.5e-06
9.5e-06
9.5e-06
9.5e-06
9.5e-06
9.5e-06
9.5e-06
9.5e-06
9.5e-06
9.5e-06
9.5e-06
9.5e-06
9.5e-06
9.5e-06
9.5e-06
9.5e-06
9.5e-06
9.47e-06
9.5e-06
9.5e-06
9.5e-06
9.5e-06
9.5e-06
9.5e-06
9.47e-06
9.47e-06
9.47e-06
9.47e-06
9.47e-06
9.47e-06
9.47e-06
9.47e-06
9.47e-06
9.47e-06
9.47e-06
9.47e-06
9.47e-06
9.47e-06
9.47e-06
9.47e-06
9.47e-06
9.47e-06
9.47e-06
9.47e-06
9.47e-06
9.47e-06
9.47e-06
9.47e-06
9.47e-06
9.47e-06
9.47e-06
9.47e-06
9.47e-06
9.47e-06
9.47e-06
9.47e-06
9.47e-06
9.47e-06
9.47e-06
9.47e-06
9.47e-06
9.47e-06
9.47e-06
9.47e-06
9.47e-06
9.47e-06
9.47e-06
9.47e-06
9.45e-06
9.45e-06
9.47e-06
9.47e-06
9.45e-06
9.45e-06
9.45e-06
9.45e-06
9.45e-06
9.45e-06
9.45e-06
9.45e-06
9.45e-06
9.45e-06
9.45e-06
9.45e-06
9.45e-06
9.45e-06
9.45e-06
9.45e-06
9.45e-06
9.45e-06
9.45e-06
9.45e-06
9.45e-06
9.45e-06
9.45e-06
9.45e-06
9.45e-06
9.45e-06
9.45e-06
9.45e-06
9.45e-06
9.45e-06
9.45e-06
9.45e-06
9.45e-06
9.45e-06
9.45e-06
9.45e-06
9.45e-06
9.45e-06
9.45e-06
9.45e-06
9.45e-06
9.45e-06
9.45e-06
9.45e-06
9.45e-06
9.45e-06
9.45e-06
9.45e-06
9.42e-06
9.45e-06
9.42e-06
9.45e-06
9.45e-06
9.42e-06
9.42e-06
9.45e-06
9.42e-06
9.42e-06
9.42e-06
9.42e-06
9.42e-06
9.42e-06
9.42e-06
9.42e-06
9.42e-06
9.42e-06
9.42e-06
9.42e-06
9.42e-06
9.42e-06
9.42e-06
9.42e-06
9.42e-06
9.42e-06
9.42e-06
9.42e-06
9.42e-06
9.42e-06
9.42e-06
9.42e-06
9.42e-06
9.42e-06
9.42e-06
9.42e-06
9.42e-06
9.42e-06
9.42e-06
9.42e-06
9.42e-06
9.42e-06
9.42e-06
9.42e-06
9.42e-06
9.42e-06
9.42e-06
9.42e-06
9.42e-06
9.4e-06
9.42e-06
9.42e-06
9.42e-06
9.42e-06
9.4e-06
9.42e-06
9.4e-06
9.42e-06
9.42e-06
9.42e-06
9.4e-06
9.4e-06
9.4e-06
9.42e-06
9.4e-06
9.4e-06
9.4e-06
9.4e-06
9.42e-06
9.4e-06
9.42e-06
9.42e-06
9.42e-06
9.4e-06
9.42e-06
9.4e-06
9.4e-06
9.4e-06
9.4e-06
9.42e-06
9.4e-06
9.4e-06
9.42e-06
9.42e-06
9.42e-06
9.42e-06
9.42e-06
9.42e-06
9.42e-06
9.42e-06
9.42e-06
9.42e-06
9.42e-06
9.42e-06
9.42e-06
9.42e-06
9.42e-06
9.45e-06
9.45e-06
9.45e-06
9.45e-06
9.45e-06
9.45e-06
9.45e-06
9.45e-06
9.45e-06
9.45e-06
9.47e-06
9.45e-06
9.47e-06
9.47e-06
9.47e-06
9.47e-06
9.47e-06
9.47e-06
9.5e-06
9.5e-06
9.5e-06
9.52e-06
9.52e-06
9.52e-06
9.52e-06
9.52e-06
9.55e-06
9.55e-06
9.55e-06
9.55e-06
9.55e-06
9.55e-06
9.57e-06
9.57e-06
9.57e-06
9.57e-06
9.59e-06
9.59e-06
9.59e-06
9.59e-06
9.62e-06
9.62e-06
9.62e-06
9.64e-06
9.64e-06
9.64e-06
9.67e-06
9.67e-06
9.67e-06
9.67e-06
9.69e-06
9.69e-06
9.69e-06
9.69e-06
9.72e-06
9.72e-06
9.72e-06
9.72e-06
9.72e-06
9.72e-06
9.72e-06
9.74e-06
9.74e-06
9.74e-06
9.74e-06
9.74e-06
9.74e-06
9.74e-06
9.74e-06
9.77e-06
9.77e-06
9.77e-06
9.77e-06
9.77e-06
9.79e-06
9.79e-06
9.79e-06
9.79e-06
9.79e-06
9.79e-06
9.81e-06
9.81e-06
9.81e-06
9.81e-06
9.81e-06
9.84e-06
9.84e-06
9.84e-06
9.84e-06
9.84e-06
9.84e-06
9.84e-06
9.84e-06
9.86e-06
9.86e-06
9.86e-06
9.86e-06
9.86e-06
9.86e-06
9.86e-06
9.89e-06
9.89e-06
9.89e-06
9.89e-06
9.89e-06
9.89e-06
9.91e-06
9.91e-06
9.91e-06
9.91e-06
9.91e-06
9.91e-06
9.91e-06
9.91e-06
9.91e-06
9.91e-06
9.91e-06
9.91e-06
9.94e-06
9.91e-06
9.94e-06
9.94e-06
9.94e-06
9.94e-06
9.94e-06
9.94e-06
9.94e-06
9.94e-06
9.94e-06
9.94e-06
9.94e-06
9.94e-06
9.94e-06
9.94e-06
9.94e-06
9.94e-06
9.94e-06
9.94e-06
9.94e-06
9.94e-06
9.94e-06
9.94e-06
9.94e-06
9.94e-06
9.94e-06
9.94e-06
9.94e-06
9.94e-06
9.94e-06
9.94e-06
9.94e-06
9.94e-06
9.94e-06
9.94e-06
9.94e-06
9.94e-06
9.94e-06
9.94e-06
9.94e-06
9.94e-06
9.94e-06
9.94e-06
9.94e-06
9.94e-06
9.94e-06
9.94e-06
9.94e-06
9.94e-06
9.94e-06
9.94e-06
9.94e-06
9.94e-06
9.94e-06
9.94e-06
9.94e-06
9.94e-06
9.94e-06
9.94e-06
9.94e-06
9.94e-06
9.94e-06
9.94e-06
9.94e-06
9.94e-06
9.94e-06
9.94e-06
9.96e-06
9.96e-06
9.96e-06
9.96e-06
9.96e-06
9.96e-06
9.96e-06
9.96e-06
9.96e-06
9.96e-06
9.99e-06
9.99e-06
9.99e-06
9.99e-06
9.99e-06
9.99e-06
1.001e-05
1.001e-05
1.001e-05
1.003e-05
1.003e-05
1.003e-05
1.003e-05
1.003e-05
1.006e-05
1.006e-05
1.006e-05
1.006e-05
1.008e-05
1.008e-05
1.008e-05
1.011e-05
1.013e-05
1.013e-05
1.013e-05
1.013e-05
1.016e-05
1.016e-05
1.016e-05
1.018e-05
1.018e-05
1.021e-05
1.021e-05
1.021e-05
1.023e-05
1.023e-05
1.023e-05
1.025e-05
1.025e-05
1.028e-05
1.028e-05
1.028e-05
1.03e-05
1.03e-05
1.033e-05
1.033e-05
1.033e-05
1.033e-05
1.035e-05
1.035e-05
1.038e-05
1.038e-05
1.038e-05
1.04e-05
1.04e-05
1.042e-05
1.042e-05
1.045e-05
1.045e-05
1.045e-05
1.045e-05
1.047e-05
1.047e-05
1.05e-05
1.05e-05
1.052e-05
1.052e-05
1.052e-05
1.052e-05
1.055e-05
1.055e-05
1.057e-05
1.057e-05
1.057e-05
1.06e-05
1.06e-05
1.06e-05
1.062e-05
1.062e-05
1.062e-05
1.064e-05
1.064e-05
1.064e-05
1.064e-05
1.067e-05
1.067e-05
1.067e-05
1.069e-05
1.069e-05
1.069e-05
1.069e-05
1.069e-05
1.069e-05
1.072e-05
1.072e-05
1.072e-05
1.072e-05
1.074e-05
1.074e-05
1.074e-05
1.074e-05
1.074e-05
1.074e-05
1.074e-05
1.074e-05
1.077e-05
1.077e-05
1.077e-05
1.077e-05
1.079e-05
1.079e-05
1.079e-05
1.082e-05
1.082e-05
1.082e-05
1.082e-05
1.082e-05
1.084e-05
1.084e-05
1.084e-05
1.084e-05
1.084e-05
1.084e-05
1.084e-05
1.086e-05
1.086e-05
1.086e-05
1.086e-05
1.086e-05
1.086e-05
1.089e-05
1.089e-05
1.089e-05
1.089e-05
1.089e-05
1.089e-05
1.089e-05
1.089e-05
1.091e-05
1.091e-05
1.091e-05
1.091e-05
1.091e-05
1.091e-05
1.091e-05
1.091e-05
1.091e-05
1.091e-05
1.091e-05
1.094e-05
1.094e-05
1.094e-05
1.094e-05
1.094e-05
1.094e-05
1.094e-05
1.094e-05
1.094e-05
1.094e-05
1.094e-05
1.094e-05
1.096e-05
1.096e-05
1.096e-05
1.096e-05
1.096e-05
1.096e-05
1.096e-05
1.096e-05
1.096e-05
1.099e-05
1.099e-05
1.099e-05
1.099e-05
1.101e-05
1.101e-05
1.101e-05
1.101e-05
1.101e-05
1.101e-05
1.104e-05
1.104e-05
1.104e-05
1.104e-05
1.104e-05
1.106e-05
1.106e-05
1.108e-05
1.108e-05
1.108e-05
1.111e-05
1.111e-05
1.111e-05
1.111e-05
1.111e-05
1.113e-05
1.113e-05
1.113e-05
1.113e-05
1.113e-05
1.113e-05
1.116e-05
1.116e-05
1.113e-05
1.116e-05
1.116e-05
1.116e-05
1.116e-05
1.116e-05
1.116e-05
1.116e-05
1.116e-05
1.116e-05
1.116e-05
1.116e-05
1.116e-05
1.116e-05
1.116e-05
1.118e-05
1.118e-05
1.118e-05
1.118e-05
1.121e-05
1.121e-05
1.121e-05
1.121e-05
1.121e-05
1.121e-05
1.121e-05
1.121e-05
1.123e-05
1.123e-05
1.123e-05
1.123e-05
1.123e-05
1.123e-05
1.123e-05
1.123e-05
1.123e-05
1.123e-05
1.123e-05
1.123e-05
1.123e-05
1.123e-05
1.123e-05
1.123e-05
1.123e-05
1.123e-05
1.123e-05
1.123e-05
1.123e-05
1.123e-05
1.123e-05
1.123e-05
1.123e-05
1.123e-05
1.123e-05
1.123e-05
1.123e-05
1.123e-05
1.123e-05
1.123e-05
1.123e-05
1.123e-05
1.123e-05
1.125e-05
1.125e-05
1.125e-05
1.125e-05
1.125e-05
1.125e-05
1.125e-05
1.125e-05
1.128e-05
1.128e-05
1.128e-05
1.128e-05
1.128e-05
1.128e-05
1.128e-05
1.128e-05
1.125e-05
1.125e-05
1.125e-05
1.128e-05
1.125e-05
1.125e-05
1.125e-05
1.125e-05
1.125e-05
1.125e-05
1.125e-05
1.125e-05
1.125e-05
1.125e-05
1.125e-05
1.125e-05
1.125e-05
1.125e-05
1.125e-05
1.125e-05
1.123e-05
1.123e-05
1.123e-05
1.123e-05
1.123e-05
1.123e-05
1.123e-05
1.123e-05
1.123e-05
1.123e-05
1.123e-05
1.123e-05
1.123e-05
1.123e-05
1.123e-05
1.123e-05
1.123e-05
1.123e-05
1.123e-05
1.123e-05
1.123e-05
1.123e-05
1.123e-05
1.123e-05
1.123e-05
1.123e-05
1.123e-05
1.123e-05
1.123e-05
1.123e-05
1.123e-05
1.123e-05
1.123e-05
1.123e-05
1.123e-05
1.123e-05
1.123e-05
1.123e-05
1.123e-05
1.123e-05
1.123e-05
1.123e-05
1.123e-05
1.123e-05
1.125e-05
1.125e-05
1.125e-05
1.125e-05
1.128e-05
1.128e-05
1.128e-05
1.128e-05
1.13e-05
1.13e-05
1.13e-05
1.13e-05
1.13e-05
1.13e-05
1.13e-05
1.133e-05
1.133e-05
1.133e-05
1.133e-05
1.133e-05
1.133e-05
1.135e-05
1.135e-05
1.135e-05
1.135e-05
1.135e-05
1.135e-05
1.138e-05
1.138e-05
1.138e-05
1.14e-05
1.14e-05
1.14e-05
1.14e-05
1.14e-05
1.143e-05
1.143e-05
1.145e-05
1.145e-05
1.145e-05
1.147e-05
1.147e-05
1.147e-05
1.15e-05
1.15e-05
1.15e-05
1.152e-05
1.152e-05
1.152e-05
1.155e-05
1.155e-05
1.155e-05
1.157e-05
1.157e-05
1.16e-05
1.16e-05
1.162e-05
1.162e-05
1.162e-05
1.165e-05
1.165e-05
1.167e-05
1.167e-05
1.169e-05
1.169e-05
1.172e-05
1.172e-05
1.174e-05
1.174e-05
1.177e-05
1.179e-05
1.179e-05
1.179e-05
1.182e-05
1.184e-05
1.184e-05
1.187e-05
1.189e-05
1.189e-05
1.191e-05
1.191e-05
1.194e-05
1.196e-05
1.196e-05
1.199e-05
1.201e-05
1.201e-05
1.204e-05
1.204e-05
1.206e-05
1.206e-05
1.208e-05
1.208e-05
1.211e-05
1.211e-05
1.213e-05
1.213e-05
1.213e-05
1.216e-05
1.218e-05
1.218e-05
1.218e-05
1.221e-05
1.221e-05
1.223e-05
1.223e-05
1.226e-05
1.226e-05
1.226e-05
1.228e-05
1.228e-05
1.228e-05
1.23e-05
1.23e-05
1.23e-05
1.233e-05
1.233e-05
1.233e-05
1.235e-05
1.235e-05
1.238e-05
1.238e-05
1.238e-05
1.24e-05
1.24e-05
1.24e-05
1.24e-05
1.243e-05
1.245e-05
1.245e-05
1.245e-05
1.248e-05
1.248e-05
1.248e-05
1.25e-05
1.25e-05
1.25e-05
1.252e-05
1.252e-05
1.252e-05
1.255e-05
1.255e-05
1.255e-05
1.257e-05
1.257e-05
1.257e-05
1.257e-05
1.26e-05
1.26e-05
1.262e-05
1.262e-05
1.262e-05
1.265e-05
1.265e-05
1.265e-05
1.265e-05
1.267e-05
1.267e-05
1.267e-05
1.267e-05
1.267e-05
1.267e-05
1.27e-05
1.27e-05
1.27e-05
1.272e-05
1.27e-05
1.272e-05
1.272e-05
1.272e-05
1.272e-05
1.274e-05
1.274e-05
1.274e-05
1.274e-05
1.274e-05
1.277e-05
1.277e-05
1.277e-05
1.277e-05
1.277e-05
1.277e-05
1.279e-05
1.279e-05
1.279e-05
1.279e-05
1.279e-05
1.279e-05
1.279e-05
1.279e-05
1.279e-05
1.282e-05
1.282e-05
1.282e-05
1.282e-05
1.282e-05
1.284e-05
1.284e-05
1.284e-05
1.284e-05
1.287e-05
1.287e-05
1.287e-05
1.287e-05
1.287e-05
1.289e-05
1.289e-05
1.289e-05
1.289e-05
1.292e-05
1.292e-05
1.292e-05
1.292e-05
1.294e-05
1.294e-05
1.294e-05
1.294e-05
1.296e-05
1.296e-05
1.296e-05
1.296e-05
1.296e-05
1.296e-05
1.299e-05
1.299e-05
1.299e-05
1.299e-05
1.299e-05
1.301e-05
1.301e-05
1.301e-05
1.301e-05
1.304e-05
1.304e-05
1.304e-05
1.304e-05
1.306e-05
1.306e-05
1.306e-05
1.306e-05
1.306e-05
1.306e-05
1.309e-05
1.309e-05
1.309e-05
1.309e-05
1.309e-05
1.309e-05
1.311e-05
1.311e-05
1.311e-05
1.313e-05
1.313e-05
1.316e-05
1.316e-05
1.316e-05
1.316e-05
1.316e-05
1.318e-05
1.318e-05
1.318e-05
1.318e-05
1.321e-05
1.321e-05
1.321e-05
1.323e-05
1.323e-05
1.323e-05
1.323e-05
1.323e-05
1.323e-05
1.326e-05
1.326e-05
1.326e-05
1.326e-05
1.326e-05
1.326e-05
1.326e-05
1.328e-05
1.328e-05
1.328e-05
1.328e-05
1.328e-05
1.328e-05
1.331e-05
1.331e-05
1.331e-05
1.331e-05
1.331e-05
1.331e-05
1.331e-05
1.331e-05
1.331e-05
1.331e-05
1.331e-05
1.331e-05
1.333e-05
1.333e-05
1.333e-05
1.333e-05
1.335e-05
1.335e-05
1.335e-05
1.335e-05
1.335e-05
1.335e-05
1.335e-05
1.335e-05
1.335e-05
1.335e-05
1.335e-05
1.335e-05
1.335e-05
1.335e-05
1.335e-05
1.335e-05
1.335e-05
1.335e-05
1.335e-05
1.335e-05
1.335e-05
1.335e-05
1.335e-05
1.335e-05
1.335e-05
1.335e-05
1.335e-05
1.335e-05
1.335e-05
1.335e-05
1.335e-05
1.333e-05
1.333e-05
1.333e-05
1.333e-05
1.333e-05
1.333e-05
1.333e-05
1.331e-05
1.331e-05
1.331e-05
1.331e-05
1.331e-05
1.331e-05
1.331e-05
1.331e-05
1.328e-05
1.328e-05
1.328e-05
1.328e-05
1.328e-05
1.326e-05
1.326e-05
1.326e-05
1.326e-05
1.326e-05
1.326e-05
1.323e-05
1.323e-05
1.323e-05
1.323e-05
1.323e-05
1.321e-05
1.321e-05
1.321e-05
1.321e-05
1.318e-05
1.318e-05
1.318e-05
1.318e-05
1.318e-05
1.318e-05
1.316e-05
1.316e-05
1.316e-05
1.316e-05
1.316e-05
1.313e-05
1.313e-05
1.313e-05
1.313e-05
1.311e-05
1.311e-05
1.311e-05
1.311e-05
1.311e-05
1.309e-05
1.309e-05
1.309e-05
1.309e-05
1.309e-05
1.306e-05
1.306e-05
1.306e-05
1.306e-05
1.306e-05
1.304e-05
1.304e-05
1.304e-05
1.304e-05
1.304e-05
1.301e-05
1.301e-05
1.301e-05
1.299e-05
1.299e-05
1.299e-05
1.299e-05
1.299e-05
1.299e-05
1.296e-05
1.296e-05
1.296e-05
1.296e-05
1.296e-05
1.296e-05
1.296e-05
1.296e-05
1.294e-05
1.294e-05
1.294e-05
1.294e-05
1.294e-05
1.294e-05
1.294e-05
1.294e-05
1.292e-05
1.292e-05
1.292e-05
1.292e-05
1.292e-05
1.292e-05
1.292e-05
1.292e-05
1.292e-05
1.292e-05
1.292e-05
1.292e-05
1.292e-05
1.292e-05
1.292e-05
1.294e-05
1.292e-05
1.292e-05
1.292e-05
1.292e-05
1.292e-05
1.292e-05
1.292e-05
1.292e-05
1.292e-05
1.292e-05
1.292e-05
1.292e-05
1.292e-05
1.292e-05
1.289e-05
1.289e-05
1.289e-05
1.289e-05
1.289e-05
1.289e-05
1.289e-05
1.289e-05
1.289e-05
1.289e-05
1.289e-05
1.287e-05
1.287e-05
1.287e-05
1.287e-05
1.287e-05
1.287e-05
1.287e-05
1.287e-05
1.287e-05
1.287e-05
1.287e-05
1.287e-05
1.287e-05
1.287e-05
1.287e-05
1.287e-05
1.287e-05
1.284e-05
1.287e-05
1.284e-05
1.284e-05
1.284e-05
1.287e-05
1.284e-05
1.284e-05
1.284e-05
1.284e-05
1.284e-05
1.284e-05
1.284e-05
1.284e-05
1.284e-05
1.284e-05
1.284e-05
1.284e-05
1.284e-05
1.284e-05
1.284e-05
1.284e-05
1.284e-05
1.284e-05
1.284e-05
1.284e-05
1.284e-05
1.284e-05
1.284e-05
1.287e-05
1.287e-05
1.287e-05
1.287e-05
1.287e-05
1.287e-05
1.287e-05
1.287e-05
1.287e-05
1.287e-05
1.287e-05
1.287e-05
1.287e-05
1.287e-05
1.287e-05
1.289e-05
1.289e-05
1.289e-05
1.289e-05
1.289e-05
1.289e-05
1.289e-05
1.289e-05
1.292e-05
1.292e-05
1.292e-05
1.292e-05
1.292e-05
1.292e-05
1.292e-05
1.292e-05
1.292e-05
1.294e-05
1.292e-05
1.294e-05
1.294e-05
1.294e-05
1.294e-05
1.294e-05
1.296e-05
1.296e-05
1.296e-05
1.296e-05
1.296e-05
1.296e-05
1.296e-05
1.296e-05
1.296e-05
1.299e-05
1.296e-05
1.299e-05
1.299e-05
1.299e-05
1.299e-05
1.299e-05
1.299e-05
1.299e-05
1.301e-05
1.301e-05
1.304e-05
1.304e-05
1.304e-05
1.306e-05
1.306e-05
1.306e-05
1.306e-05
1.306e-05
1.309e-05
1.309e-05
1.309e-05
1.309e-05
1.309e-05
1.309e-05
1.309e-05
1.309e-05
1.309e-05
1.309e-05
1.306e-05
1.309e-05
1.309e-05
1.309e-05
1.309e-05
1.309e-05
1.309e-05
1.309e-05
1.309e-05
1.309e-05
1.309e-05
1.309e-05
1.306e-05
1.306e-05
1.309e-05
1.306e-05
1.306e-05
1.306e-05
1.306e-05
1.306e-05
1.306e-05
1.306e-05
1.306e-05
1.306e-05
1.306e-05
1.306e-05
1.306e-05
1.306e-05
1.306e-05
1.306e-05
1.306e-05
1.306e-05
1.306e-05
1.304e-05
1.304e-05
1.304e-05
1.304e-05
1.304e-05
1.304e-05
1.304e-05
1.304e-05
1.304e-05
1.304e-05
1.304e-05
1.304e-05
1.304e-05
1.301e-05
1.301e-05
1.301e-05
1.301e-05
1.301e-05
1.301e-05
1.301e-05
1.301e-05
1.301e-05
1.301e-05
1.301e-05
1.301e-05
1.301e-05
1.301e-05
1.299e-05
1.301e-05
1.301e-05
1.301e-05
1.301e-05
1.301e-05
1.301e-05
1.304e-05
1.304e-05
1.304e-05
1.304e-05
1.304e-05
1.304e-05
1.304e-05
1.304e-05
1.304e-05
1.304e-05
1.304e-05
1.306e-05
1.306e-05
1.304e-05
1.306e-05
1.306e-05
1.306e-05
1.306e-05
1.309e-05
1.309e-05
1.309e-05
1.309e-05
1.309e-05
1.309e-05
1.309e-05
1.311e-05
1.311e-05
1.311e-05
1.313e-05
1.313e-05
1.313e-05
1.313e-05
1.316e-05
1.316e-05
1.316e-05
1.316e-05
1.318e-05
1.318e-05
1.318e-05
1.321e-05
1.321e-05
1.321e-05
1.321e-05
1.323e-05
1.323e-05
1.323e-05
1.326e-05
1.326e-05
1.326e-05
1.326e-05
1.326e-05
1.328e-05
1.328e-05
1.328e-05
1.331e-05
1.331e-05
1.331e-05
1.331e-05
1.333e-05
1.333e-05
1.333e-05
1.335e-05
1.335e-05
1.335e-05
1.335e-05
1.338e-05
1.338e-05
1.338e-05
1.34e-05
1.34e-05
1.34e-05
1.34e-05
1.343e-05
1.343e-05
1.343e-05
1.343e-05
1.345e-05
1.345e-05
1.345e-05
1.345e-05
1.345e-05
1.345e-05
1.345e-05
1.345e-05
1.348e-05
1.348e-05
1.348e-05
1.348e-05
1.348e-05
1.348e-05
1.348e-05
1.35e-05
1.35e-05
1.35e-05
1.35e-05
1.35e-05
1.35e-05
1.35e-05
1.35e-05
1.35e-05
1.35e-05
1.35e-05
1.35e-05
1.35e-05
1.353e-05
1.353e-05
1.35e-05
1.353e-05
1.353e-05
1.353e-05
1.353e-05
1.353e-05
1.353e-05
1.35e-05
1.35e-05
1.35e-05
1.35e-05
1.35e-05
1.35e-05
1.35e-05
1.35e-05
1.35e-05
1.35e-05
1.35e-05
1.35e-05
1.35e-05
1.35e-05
1.35e-05
1.348e-05
1.35e-05
1.35e-05
1.35e-05
1.348e-05
1.348e-05
1.348e-05
1.348e-05
1.348e-05
1.348e-05
1.348e-05
1.348e-05
1.348e-05
1.348e-05
1.348e-05
1.348e-05
1.348e-05
1.345e-05
1.345e-05
1.345e-05
1.345e-05
1.345e-05
1.345e-05
1.345e-05
1.345e-05
1.345e-05
1.345e-05
1.345e-05
1.345e-05
1.345e-05
1.345e-05
1.343e-05
1.343e-05
1.343e-05
1.343e-05
1.343e-05
1.343e-05
1.343e-05
1.343e-05
1.34e-05
1.34e-05
1.34e-05
1.34e-05
1.34e-05
1.338e-05
1.34e-05
1.338e-05
1.338e-05
1.338e-05
1.338e-05
1.338e-05
1.338e-05
1.338e-05
1.338e-05
1.338e-05
1.335e-05
1.335e-05
1.335e-05
1.335e-05
1.335e-05
1.335e-05
1.335e-05
1.333e-05
1.335e-05
1.335e-05
1.335e-05
1.333e-05
1.333e-05
1.333e-05
1.333e-05
1.333e-05
1.333e-05
1.333e-05
1.333e-05
1.333e-05
1.333e-05
1.331e-05
1.331e-05
1.331e-05
1.331e-05
1.331e-05
1.331e-05
1.331e-05
1.331e-05
1.331e-05
1.331e-05
1.328e-05
1.328e-05
1.328e-05
1.328e-05
1.328e-05
1.328e-05
1.328e-05
1.326e-05
1.326e-05
1.326e-05
1.326e-05
1.326e-05
1.326e-05
1.326e-05
1.326e-05
1.326e-05
1.323e-05
1.323e-05
1.323e-05
1.323e-05
1.323e-05
1.323e-05
1.323e-05
1.323e-05
1.321e-05
1.321e-05
1.323e-05
1.321e-05
1.321e-05
1.321e-05
1.321e-05
1.321e-05
1.321e-05
1.318e-05
1.321e-05
1.318e-05
1.318e-05
1.318e-05
1.318e-05
1.318e-05
1.318e-05
1.318e-05
1.318e-05
1.318e-05
1.316e-05
1.316e-05
1.316e-05
1.316e-05
1.316e-05
1.316e-05
1.316e-05
1.313e-05
1.313e-05
1.313e-05
1.313e-05
1.313e-05
1.313e-05
1.313e-05
1.313e-05
1.313e-05
1.311e-05
1.311e-05
1.311e-05
1.311e-05
1.311e-05
1.311e-05
1.311e-05
1.311e-05
1.311e-05
1.311e-05
1.311e-05
1.311e-05
1.311e-05
1.311e-05
1.311e-05
1.309e-05
1.309e-05
1.309e-05
1.309e-05
1.309e-05
1.309e-05
1.309e-05
1.309e-05
1.309e-05
1.309e-05
1.309e-05
1.306e-05
1.306e-05
1.306e-05
1.306e-05
1.306e-05
1.306e-05
1.304e-05
1.304e-05
1.304e-05
1.304e-05
1.304e-05
1.304e-05
1.304e-05
1.304e-05
1.304e-05
1.304e-05
1.304e-05
1.301e-05
1.301e-05
1.301e-05
1.301e-05
1.301e-05
1.299e-05
1.299e-05
1.299e-05
1.299e-05
1.299e-05
1.299e-05
1.299e-05
1.296e-05
1.296e-05
1.296e-05
1.296e-05
1.296e-05
1.296e-05
1.296e-05
1.296e-05
1.296e-05
1.296e-05
1.294e-05
1.294e-05
1.294e-05
1.294e-05
1.294e-05
1.294e-05
1.294e-05
1.294e-05
1.294e-05
1.292e-05
1.292e-05
1.292e-05
1.292e-05
1.292e-05
1.292e-05
1.292e-05
1.292e-05
1.292e-05
1.289e-05
1.292e-05
1.292e-05
1.289e-05
1.289e-05
1.289e-05
1.289e-05
1.289e-05
1.289e-05
1.289e-05
1.289e-05
1.289e-05
1.289e-05
1.287e-05
1.287e-05
1.287e-05
1.287e-05
1.287e-05
1.287e-05
1.287e-05
1.287e-05
1.287e-05
1.287e-05
1.287e-05
1.287e-05
1.287e-05
1.287e-05
1.287e-05
1.284e-05
1.284e-05
1.284e-05
1.284e-05
1.284e-05
1.284e-05
1.284e-05
1.284e-05
1.284e-05
1.284e-05
1.284e-05
1.284e-05
1.284e-05
1.282e-05
1.282e-05
1.282e-05
1.282e-05
1.282e-05
1.282e-05
1.282e-05
1.282e-05
1.282e-05
1.282e-05
1.282e-05
1.282e-05
1.282e-05
1.282e-05
1.282e-05
1.279e-05
1.279e-05
1.279e-05
1.279e-05
1.282e-05
1.279e-05
1.279e-05
1.279e-05
1.279e-05
1.279e-05
1.279e-05
1.279e-05
1.279e-05
1.279e-05
1.279e-05
1.279e-05
1.279e-05
1.279e-05
1.279e-05
1.279e-05
1.279e-05
1.279e-05
1.279e-05
1.279e-05
1.279e-05
1.279e-05
1.279e-05
1.279e-05
1.279e-05
1.279e-05
1.279e-05
1.279e-05
1.279e-05
1.279e-05
1.279e-05
1.279e-05
1.279e-05
1.279e-05
1.279e-05
1.279e-05
1.279e-05
1.279e-05
1.279e-05
1.279e-05
1.279e-05
1.279e-05
1.279e-05
1.279e-05
1.279e-05
1.279e-05
1.279e-05
1.279e-05
1.279e-05
1.279e-05
1.279e-05
1.279e-05
1.279e-05
1.279e-05
1.279e-05
1.279e-05
1.279e-05
1.279e-05
1.279e-05
1.279e-05
1.279e-05
1.279e-05
1.279e-05
1.279e-05
1.277e-05
1.279e-05
1.279e-05
1.279e-05
1.279e-05
1.279e-05
1.279e-05
1.279e-05
1.279e-05
1.277e-05
1.277e-05
1.279e-05
1.277e-05
1.277e-05
1.277e-05
1.277e-05
1.277e-05
1.277e-05
1.277e-05
1.277e-05
1.277e-05
1.277e-05
1.277e-05
1.277e-05
1.277e-05
1.277e-05
1.277e-05
1.277e-05
1.277e-05
1.277e-05
1.277e-05
1.274e-05
1.277e-05
1.274e-05
1.274e-05
1.274e-05
1.274e-05
1.274e-05
1.274e-05
1.274e-05
1.274e-05
1.274e-05
1.274e-05
1.274e-05
1.274e-05
1.272e-05
1.274e-05
1.272e-05
1.272e-05
1.272e-05
1.272e-05
1.272e-05
1.272e-05
1.272e-05
1.272e-05
1.272e-05
1.272e-05
1.272e-05
1.272e-05
1.272e-05
1.272e-05
1.272e-05
1.272e-05
1.272e-05
1.272e-05
1.27e-05
1.272e-05
1.27e-05
1.27e-05
1.27e-05
1.27e-05
1.27e-05
1.27e-05
1.27e-05
1.27e-05
1.27e-05
1.27e-05
1.27e-05
1.27e-05
1.27e-05
1.27e-05
1.27e-05
1.27e-05
1.27e-05
1.27e-05
1.27e-05
1.27e-05
1.27e-05
1.27e-05
1.27e-05
1.27e-05
1.27e-05
1.27e-05
1.27e-05
1.272e-05
1.27e-05
1.272e-05
1.27e-05
1.272e-05
1.27e-05
1.272e-05
1.272e-05
1.272e-05
1.272e-05
1.272e-05
1.272e-05
1.27e-05
1.272e-05
1.272e-05
1.27e-05
1.272e-05
1.272e-05
1.272e-05
1.272e-05
1.272e-05
1.272e-05
1.272e-05
1.272e-05
1.272e-05
1.272e-05
1.272e-05
1.272e-05
1.274e-05
1.272e-05
1.272e-05
1.274e-05
1.274e-05
1.274e-05
1.274e-05
1.274e-05
1.274e-05
1.274e-05
1.274e-05
1.274e-05
1.274e-05
1.274e-05
1.274e-05
1.274e-05
1.277e-05
1.274e-05
1.274e-05
1.274e-05
1.274e-05
1.274e-05
1.274e-05
1.274e-05
1.277e-05
1.274e-05
1.277e-05
1.274e-05
1.277e-05
1.277e-05
1.277e-05
1.277e-05
1.277e-05
1.277e-05
1.277e-05
1.277e-05
1.277e-05
1.277e-05
1.277e-05
1.277e-05
1.277e-05
1.277e-05
1.277e-05
1.274e-05
1.277e-05
1.277e-05
1.277e-05
1.274e-05
1.274e-05
1.277e-05
1.274e-05
1.274e-05
1.274e-05
1.274e-05
1.274e-05
1.274e-05
1.274e-05
1.274e-05
1.272e-05
1.274e-05
1.274e-05
1.274e-05
1.274e-05
1.272e-05
1.274e-05
1.272e-05
1.272e-05
1.272e-05
1.272e-05
1.272e-05
1.272e-05
1.272e-05
1.272e-05
1.272e-05
1.272e-05
1.272e-05
1.272e-05
1.272e-05
1.272e-05
1.272e-05
1.272e-05
1.272e-05
1.272e-05
1.27e-05
1.27e-05
1.27e-05
1.27e-05
1.27e-05
1.27e-05
1.27e-05
1.27e-05
1.27e-05
1.27e-05
1.27e-05
1.27e-05
1.27e-05
1.27e-05
1.27e-05
1.27e-05
1.267e-05
1.267e-05
1.267e-05
1.267e-05
1.267e-05
1.267e-05
1.267e-05
1.267e-05
1.267e-05
1.267e-05
1.267e-05
1.267e-05
1.265e-05
1.265e-05
1.267e-05
1.265e-05
1.265e-05
1.265e-05
1.265e-05
1.265e-05
1.265e-05
1.265e-05
1.262e-05
1.262e-05
1.262e-05
1.262e-05
1.262e-05
1.262e-05
1.26e-05
1.262e-05
1.26e-05
1.26e-05
1.26e-05
1.26e-05
1.26e-05
1.26e-05
1.26e-05
1.26e-05
1.26e-05
1.257e-05
1.257e-05
1.257e-05
1.257e-05
1.257e-05
1.257e-05
1.257e-05
1.257e-05
1.257e-05
1.255e-05
1.255e-05
1.255e-05
1.255e-05
1.255e-05
1.255e-05
1.255e-05
1.252e-05
1.252e-05
1.252e-05
1.252e-05
1.252e-05
1.252e-05
1.252e-05
1.252e-05
1.252e-05
1.25e-05
1.252e-05
1.25e-05
1.25e-05
1.25e-05
1.25e-05
1.25e-05
1.25e-05
1.25e-05
1.25e-05
1.25e-05
1.25e-05
1.248e-05
1.248e-05
1.248e-05
1.248e-05
1.248e-05
1.248e-05
1.248e-05
1.248e-05
1.248e-05
1.248e-05
1.248e-05
1.248e-05
1.248e-05
1.248e-05
1.248e-05
1.248e-05
1.248e-05
1.248e-05
1.248e-05
1.248e-05
1.248e-05
1.248e-05
1.248e-05
1.248e-05
1.248e-05
1.248e-05
1.25e-05
1.25e-05
1.25e-05
1.25e-05
1.25e-05
1.25e-05
1.25e-05
1.25e-05
1.252e-05
1.252e-05
1.252e-05
1.252e-05
1.252e-05
1.255e-05
1.255e-05
1.255e-05
1.255e-05
1.257e-05
1.257e-05
1.257e-05
1.26e-05
1.26e-05
1.26e-05
1.262e-05
1.262e-05
1.262e-05
1.265e-05
1.265e-05
1.265e-05
1.267e-05
1.267e-05
1.267e-05
1.27e-05
1.27e-05
1.27e-05
1.272e-05
1.274e-05
1.274e-05
1.274e-05
1.277e-05
1.277e-05
1.277e-05
1.279e-05
1.279e-05
1.279e-05
1.282e-05
1.282e-05
1.282e-05
1.284e-05
1.284e-05
1.284e-05
1.284e-05
1.287e-05
1.287e-05
1.287e-05
1.287e-05
1.287e-05
1.289e-05
1.289e-05
1.289e-05
1.289e-05
1.292e-05
1.292e-05
1.292e-05
1.292e-05
1.292e-05
1.292e-05
1.294e-05
1.294e-05
1.294e-05
1.294e-05
1.296e-05
1.296e-05
1.296e-05
1.296e-05
1.296e-05
1.296e-05
1.296e-05
1.296e-05
1.299e-05
1.299e-05
1.299e-05
1.299e-05
1.299e-05
1.299e-05
1.299e-05
1.299e-05
1.299e-05
1.301e-05
1.301e-05
1.299e-05
1.301e-05
1.301e-05
1.301e-05
1.301e-05
1.301e-05
1.301e-05
1.301e-05
1.301e-05
1.301e-05
1.301e-05
1.301e-05
1.301e-05
1.301e-05
1.301e-05
1.301e-05
1.301e-05
1.301e-05
1.304e-05
1.304e-05
1.304e-05
1.304e-05
1.301e-05
1.304e-05
1.304e-05
1.301e-05
1.301e-05
1.304e-05
1.301e-05
1.304e-05
1.301e-05
1.304e-05
1.304e-05
1.304e-05
1.304e-05
1.304e-05
1.304e-05
1.304e-05
1.304e-05
1.304e-05
1.304e-05
1.304e-05
1.301e-05
1.304e-05
1.304e-05
1.304e-05
1.304e-05
1.301e-05
1.301e-05
1.301e-05
1.301e-05
1.301e-05
1.299e-05
1.299e-05
1.299e-05
1.299e-05
1.299e-05
1.299e-05
1.299e-05
1.299e-05
1.296e-05
1.296e-05
1.296e-05
1.296e-05
1.296e-05
1.296e-05
1.296e-05
1.296e-05
1.294e-05
1.294e-05
1.294e-05
1.294e-05
1.294e-05
1.294e-05
1.292e-05
1.292e-05
1.292e-05
1.292e-05
1.292e-05
1.292e-05
1.289e-05
1.289e-05
1.289e-05
1.289e-05
1.289e-05
1.289e-05
1.287e-05
1.287e-05
1.287e-05
1.287e-05
1.287e-05
1.287e-05
1.287e-05
1.284e-05
1.284e-05
1.284e-05
1.284e-05
1.284e-05
1.284e-05
1.284e-05
1.282e-05
1.282e-05
1.282e-05
1.282e-05
1.282e-05
1.282e-05
1.279e-05
1.279e-05
1.279e-05
1.279e-05
1.279e-05
1.279e-05
1.279e-05
1.279e-05
1.277e-05
1.277e-05
1.277e-05
1.277e-05
1.277e-05
1.277e-05
1.274e-05
1.274e-05
1.274e-05
1.274e-05
1.272e-05
1.272e-05
1.272e-05
1.272e-05
1.272e-05
1.272e-05
1.27e-05
1.27e-05
1.267e-05
1.27e-05
1.27e-05
1.27e-05
1.267e-05
1.267e-05
1.267e-05
1.267e-05
1.265e-05
1.267e-05
1.265e-05
1.265e-05
1.265e-05
1.265e-05
1.265e-05
1.262e-05
1.262e-05
1.262e-05
1.26e-05
1.26e-05
1.26e-05
1.26e-05
1.26e-05
1.26e-05
1.257e-05
1.257e-05
1.257e-05
1.257e-05
1.257e-05
1.257e-05
1.257e-05
1.255e-05
1.255e-05
1.255e-05
1.255e-05
1.255e-05
1.252e-05
1.252e-05
1.252e-05
1.252e-05
1.252e-05
1.252e-05
1.252e-05
1.25e-05
1.25e-05
1.25e-05
1.25e-05
1.25e-05
1.25e-05
1.25e-05
1.248e-05
1.248e-05
1.248e-05
1.248e-05
1.248e-05
1.248e-05
1.248e-05
1.248e-05
1.248e-05
1.248e-05
1.248e-05
1.245e-05
1.248e-05
1.245e-05
1.245e-05
1.245e-05
1.243e-05
1.245e-05
1.245e-05
1.245e-05
1.243e-05
1.243e-05
1.243e-05
1.243e-05
1.243e-05
1.24e-05
1.24e-05
1.24e-05
1.24e-05
1.24e-05
1.24e-05
1.24e-05
1.24e-05
1.24e-05
1.238e-05
1.238e-05
1.238e-05
1.238e-05
1.238e-05
1.238e-05
1.238e-05
1.235e-05
1.235e-05
1.235e-05
1.233e-05
1.233e-05
1.233e-05
1.233e-05
1.233e-05
1.233e-05
1.23e-05
1.233e-05
1.233e-05
1.23e-05
1.23e-05
1.23e-05
1.23e-05
1.23e-05
1.228e-05
1.228e-05
1.228e-05
1.228e-05
1.228e-05
1.228e-05
1.228e-05
1.228e-05
1.228e-05
1.228e-05
1.226e-05
1.226e-05
1.226e-05
1.226e-05
1.226e-05
1.226e-05
1.226e-05
1.226e-05
1.223e-05
1.226e-05
1.226e-05
1.226e-05
1.223e-05
1.223e-05
1.223e-05
1.223e-05
1.223e-05
1.223e-05
1.221e-05
1.221e-05
1.221e-05
1.221e-05
1.218e-05
1.218e-05
1.218e-05
1.218e-05
1.218e-05
1.218e-05
1.218e-05
1.218e-05
1.218e-05
1.218e-05
1.218e-05
1.218e-05
1.218e-05
1.218e-05
1.218e-05
1.218e-05
1.218e-05
1.218e-05
1.218e-05
1.218e-05
1.218e-05
1.218e-05
1.218e-05
1.218e-05
1.218e-05
1.218e-05
1.218e-05
1.218e-05
1.218e-05
1.218e-05
1.218e-05
1.218e-05
1.218e-05
1.218e-05
1.218e-05
1.218e-05
1.218e-05
1.218e-05
1.216e-05
1.218e-05
1.216e-05
1.213e-05
1.213e-05
1.213e-05
1.211e-05
1.211e-05
1.211e-05
1.211e-05
1.211e-05
1.211e-05
1.211e-05
1.211e-05
1.211e-05
1.211e-05
1.211e-05
1.213e-05
1.211e-05
1.211e-05
1.211e-05
1.211e-05
1.211e-05
1.211e-05
1.211e-05
1.211e-05
1.211e-05
1.211e-05
1.211e-05
1.211e-05
1.211e-05
1.211e-05
1.211e-05
1.211e-05
1.211e-05
1.211e-05
1.211e-05
1.211e-05
1.211e-05
1.211e-05
1.211e-05
1.213e-05
1.211e-05
1.213e-05
1.213e-05
1.213e-05
1.213e-05
1.213e-05
1.213e-05
1.213e-05
1.213e-05
1.213e-05
1.213e-05
1.213e-05
1.216e-05
1.216e-05
1.216e-05
1.216e-05
1.216e-05
1.218e-05
1.218e-05
1.218e-05
1.218e-05
1.218e-05
1.218e-05
1.218e-05
1.218e-05
1.221e-05
1.221e-05
1.221e-05
1.221e-05
1.223e-05
1.223e-05
1.226e-05
1.223e-05
1.226e-05
1.226e-05
1.226e-05
1.228e-05
1.228e-05
1.228e-05
1.228e-05
1.23e-05
1.23e-05
1.23e-05
1.23e-05
1.23e-05
1.23e-05
1.233e-05
1.233e-05
1.233e-05
1.235e-05
1.235e-05
1.235e-05
1.235e-05
1.238e-05
1.238e-05
1.238e-05
1.24e-05
1.24e-05
1.24e-05
1.24e-05
1.24e-05
1.243e-05
1.243e-05
1.243e-05
1.243e-05
1.245e-05
1.245e-05
1.245e-05
1.245e-05
1.245e-05
1.248e-05
1.248e-05
1.248e-05
1.248e-05
1.248e-05
1.248e-05
1.25e-05
1.25e-05
1.25e-05
1.25e-05
1.25e-05
1.25e-05
1.252e-05
1.252e-05
1.252e-05
1.252e-05
1.252e-05
1.252e-05
1.252e-05
1.252e-05
1.252e-05
1.252e-05
1.252e-05
1.255e-05
1.252e-05
1.252e-05
1.252e-05
1.255e-05
1.255e-05
1.255e-05
1.255e-05
1.255e-05
1.255e-05
1.255e-05
1.255e-05
1.252e-05
1.255e-05
1.255e-05
1.252e-05
1.252e-05
1.252e-05
1.252e-05
1.255e-05
1.255e-05
1.252e-05
1.252e-05
1.252e-05
1.252e-05
1.252e-05
1.252e-05
1.252e-05
1.252e-05
1.252e-05
1.252e-05
1.252e-05
1.252e-05
1.252e-05
1.252e-05
1.252e-05
1.252e-05
1.252e-05
1.252e-05
1.252e-05
1.252e-05
1.252e-05
1.252e-05
1.25e-05
1.25e-05
1.25e-05
1.25e-05
1.25e-05
1.25e-05
1.25e-05
1.25e-05
1.248e-05
1.25e-05
1.248e-05
1.248e-05
1.248e-05
1.248e-05
1.248e-05
1.248e-05
1.248e-05
1.248e-05
1.248e-05
1.248e-05
1.245e-05
1.245e-05
1.245e-05
1.245e-05
1.245e-05
1.245e-05
1.245e-05
1.243e-05
1.243e-05
1.243e-05
1.243e-05
1.243e-05
1.243e-05
1.243e-05
1.243e-05
1.243e-05
1.243e-05
1.24e-05
1.24e-05
1.24e-05
1.24e-05
1.24e-05
1.24e-05
1.24e-05
1.24e-05
1.24e-05
1.238e-05
1.238e-05
1.238e-05
1.238e-05
1.238e-05
1.238e-05
1.235e-05
1.238e-05
1.235e-05
1.235e-05
1.235e-05
1.235e-05
1.235e-05
1.235e-05
1.233e-05
1.233e-05
1.233e-05
1.233e-05
1.233e-05
1.233e-05
1.233e-05
1.23e-05
1.23e-05
1.23e-05
1.23e-05
1.23e-05
1.23e-05
1.23e-05
1.23e-05
1.23e-05
1.23e-05
1.23e-05
1.228e-05
1.228e-05
1.228e-05
1.228e-05
1.228e-05
1.228e-05
1.228e-05
1.228e-05
1.226e-05
1.226e-05
1.226e-05
1.226e-05
1.226e-05
1.226e-05
1.226e-05
1.226e-05
1.223e-05
1.226e-05
1.223e-05
1.223e-05
1.223e-05
1.223e-05
1.223e-05
1.223e-05
1.223e-05
1.223e-05
1.221e-05
1.221e-05
1.221e-05
1.221e-05
1.221e-05
1.221e-05
1.218e-05
1.221e-05
1.218e-05
1.218e-05
1.218e-05
1.218e-05
1.218e-05
1.218e-05
1.218e-05
1.218e-05
1.218e-05
1.218e-05
1.218e-05
1.216e-05
1.216e-05
1.216e-05
1.216e-05
1.216e-05
1.213e-05
1.213e-05
1.213e-05
1.213e-05
1.213e-05
1.213e-05
1.213e-05
1.213e-05
1.213e-05
1.213e-05
1.213e-05
1.211e-05
1.211e-05
1.211e-05
1.211e-05
1.211e-05
1.211e-05
1.211e-05
1.211e-05
1.211e-05
1.211e-05
1.211e-05
1.211e-05
1.211e-05
1.208e-05
1.208e-05
1.208e-05
1.208e-05
1.208e-05
1.208e-05
1.208e-05
1.208e-05
1.206e-05
1.208e-05
1.208e-05
1.206e-05
1.206e-05
1.206e-05
1.206e-05
1.206e-05
1.206e-05
1.206e-05
1.206e-05
1.204e-05
1.204e-05
1.204e-05
1.201e-05
1.204e-05
1.204e-05
1.204e-05
1.204e-05
1.204e-05
1.201e-05
1.201e-05
1.201e-05
1.201e-05
1.201e-05
1.201e-05
1.201e-05
1.201e-05
1.201e-05
1.199e-05
1.199e-05
1.199e-05
1.199e-05
1.199e-05
1.199e-05
1.199e-05
1.199e-05
1.199e-05
1.196e-05
1.196e-05
1.196e-05
1.196e-05
1.196e-05
1.196e-05
1.196e-05
1.194e-05
1.194e-05
1.194e-05
1.194e-05
1.194e-05
1.194e-05
1.194e-05
1.194e-05
1.194e-05
1.194e-05
1.191e-05
1.191e-05
1.191e-05
1.191e-05
1.191e-05
1.191e-05
1.191e-05
1.191e-05
1.189e-05
1.189e-05
1.189e-05
1.189e-05
1.189e-05
1.189e-05
1.189e-05
1.189e-05
1.189e-05
1.189e-05
1.189e-05
1.189e-05
1.189e-05
1.189e-05
1.189e-05
1.189e-05
1.187e-05
1.187e-05
1.187e-05
1.187e-05
1.187e-05
1.187e-05
1.187e-05
1.187e-05
1.187e-05
1.187e-05
1.187e-05
1.187e-05
1.187e-05
1.187e-05
1.187e-05
1.187e-05
1.184e-05
1.184e-05
1.187e-05
1.184e-05
1.184e-05
1.184e-05
1.184e-05
1.187e-05
1.184e-05
1.184e-05
1.187e-05
1.187e-05
1.187e-05
1.187e-05
1.187e-05
1.187e-05
1.187e-05
1.187e-05
1.187e-05
1.187e-05
1.187e-05
1.187e-05
1.187e-05
1.189e-05
1.189e-05
1.189e-05
1.189e-05
1.189e-05
1.189e-05
1.189e-05
1.189e-05
1.189e-05
1.191e-05
1.191e-05
1.191e-05
1.191e-05
1.194e-05
1.194e-05
1.194e-05
1.194e-05
1.194e-05
1.196e-05
1.196e-05
1.196e-05
1.196e-05
1.199e-05
1.199e-05
1.199e-05
1.199e-05
1.201e-05
1.201e-05
1.201e-05
1.201e-05
1.201e-05
1.201e-05
1.204e-05
1.204e-05
1.204e-05
1.206e-05
1.206e-05
1.206e-05
1.206e-05
1.208e-05
1.206e-05
1.208e-05
1.208e-05
1.208e-05
1.211e-05
1.211e-05
1.211e-05
1.211e-05
1.211e-05
1.211e-05
1.213e-05
1.213e-05
1.213e-05
1.213e-05
1.213e-05
1.213e-05
1.216e-05
1.216e-05
1.216e-05
1.216e-05
1.218e-05
1.218e-05
1.218e-05
1.218e-05
1.218e-05
1.218e-05
1.218e-05
1.218e-05
1.221e-05
1.221e-05
1.221e-05
1.221e-05
1.221e-05
1.221e-05
1.221e-05
1.221e-05
1.223e-05
1.223e-05
1.223e-05
1.223e-05
1.223e-05
1.223e-05
1.223e-05
1.226e-05
1.226e-05
1.226e-05
1.226e-05
1.226e-05
1.226e-05
1.226e-05
1.226e-05
1.226e-05
1.226e-05
1.226e-05
1.226e-05
1.226e-05
1.226e-05
1.226e-05
1.226e-05
1.226e-05
1.226e-05
1.226e-05
1.226e-05
1.226e-05
1.228e-05
1.228e-05
1.226e-05
1.228e-05
1.228e-05
1.226e-05
1.228e-05
1.226e-05
1.228e-05
1.228e-05
1.228e-05
1.228e-05
1.228e-05
1.226e-05
1.226e-05
1.226e-05
1.226e-05
1.226e-05
1.226e-05
1.226e-05
1.226e-05
1.226e-05
1.226e-05
1.226e-05
1.226e-05
1.226e-05
1.226e-05
1.226e-05
1.226e-05
1.226e-05
1.226e-05
1.226e-05
1.226e-05
1.226e-05
1.223e-05
1.223e-05
1.223e-05
1.223e-05
1.223e-05
1.223e-05
1.223e-05
1.223e-05
1.221e-05
1.221e-05
1.221e-05
1.221e-05
1.221e-05
1.221e-05
1.218e-05
1.218e-05
1.218e-05
1.218e-05
1.218e-05
1.218e-05
1.218e-05
1.218e-05
1.216e-05
1.218e-05
1.216e-05
1.218e-05
1.216e-05
1.216e-05
1.216e-05
1.216e-05
1.213e-05
1.213e-05
1.213e-05
1.213e-05
1.213e-05
1.213e-05
1.211e-05
1.211e-05
1.211e-05
1.211e-05
1.211e-05
1.211e-05
1.211e-05
1.208e-05
1.208e-05
1.208e-05
1.208e-05
1.208e-05
1.208e-05
1.206e-05
1.206e-05
1.206e-05
1.206e-05
1.206e-05
1.206e-05
1.206e-05
1.204e-05
1.204e-05
1.204e-05
1.204e-05
1.201e-05
1.201e-05
1.201e-05
1.201e-05
1.201e-05
1.201e-05
1.201e-05
1.201e-05
1.199e-05
1.199e-05
1.199e-05
1.199e-05
1.199e-05
1.199e-05
1.199e-05
1.196e-05
1.196e-05
1.196e-05
1.196e-05
1.196e-05
1.194e-05
1.194e-05
1.194e-05
1.194e-05
1.194e-05
1.194e-05
1.194e-05
1.191e-05
1.191e-05
1.191e-05
1.191e-05
1.191e-05
1.191e-05
1.189e-05
1.189e-05
1.189e-05
1.189e-05
1.189e-05
1.189e-05
1.189e-05
1.189e-05
1.189e-05
1.187e-05
1.187e-05
1.187e-05
1.187e-05
1.187e-05
1.187e-05
1.187e-05
1.187e-05
1.187e-05
1.184e-05
1.184e-05
1.184e-05
1.184e-05
1.184e-05
1.182e-05
1.182e-05
1.182e-05
1.182e-05
1.182e-05
1.182e-05
1.182e-05
1.179e-05
1.179e-05
1.179e-05
1.179e-05
1.179e-05
1.179e-05
1.179e-05
1.179e-05
1.179e-05
1.177e-05
1.177e-05
1.177e-05
1.177e-05
1.177e-05
1.177e-05
1.177e-05
1.177e-05
1.177e-05
1.177e-05
1.174e-05
1.174e-05
1.174e-05
1.174e-05
1.174e-05
1.174e-05
1.174e-05
1.174e-05
1.172e-05
1.172e-05
1.172e-05
1.172e-05
1.172e-05
1.172e-05
1.172e-05
1.172e-05
1.172e-05
1.172e-05
1.172e-05
1.169e-05
1.169e-05
1.169e-05
1.169e-05
1.169e-05
1.169e-05
1.169e-05
1.169e-05
1.169e-05
1.169e-05
1.169e-05
1.167e-05
1.167e-05
1.167e-05
1.167e-05
1.167e-05
1.167e-05
1.167e-05
1.167e-05
1.167e-05
1.167e-05
1.167e-05
1.165e-05
1.165e-05
1.165e-05
1.165e-05
1.165e-05
1.165e-05
1.165e-05
1.165e-05
1.162e-05
1.162e-05
1.162e-05
1.162e-05
1.162e-05
1.162e-05
1.162e-05
1.162e-05
1.162e-05
1.162e-05
1.162e-05
1.16e-05
1.16e-05
1.16e-05
1.16e-05
1.16e-05
1.16e-05
1.16e-05
1.16e-05
1.16e-05
1.16e-05
1.157e-05
1.157e-05
1.157e-05
1.157e-05
1.157e-05
1.157e-05
1.157e-05
1.157e-05
1.155e-05
1.157e-05
1.155e-05
1.155e-05
1.155e-05
1.155e-05
1.155e-05
1.155e-05
1.155e-05
1.155e-05
1.155e-05
1.155e-05
1.155e-05
1.155e-05
1.152e-05
1.155e-05
1.152e-05
1.152e-05
1.152e-05
1.152e-05
1.152e-05
1.152e-05
1.152e-05
1.152e-05
1.152e-05
1.152e-05
1.152e-05
1.152e-05
1.152e-05
1.152e-05
1.152e-05
1.152e-05
1.15e-05
1.15e-05
1.15e-05
1.15e-05
1.15e-05
1.15e-05
1.15e-05
1.15e-05
1.15e-05
1.15e-05
1.15e-05
1.15e-05
1.15e-05
1.147e-05
1.147e-05
1.15e-05
1.147e-05
1.147e-05
1.147e-05
1.147e-05
1.147e-05
1.147e-05
1.147e-05
1.147e-05
1.147e-05
1.147e-05
1.147e-05
1.147e-05
1.145e-05
1.147e-05
1.145e-05
1.145e-05
1.145e-05
1.145e-05
1.145e-05
1.145e-05
1.145e-05
1.145e-05
1.145e-05
1.143e-05
1.143e-05
1.143e-05
1.143e-05
1.143e-05
1.143e-05
1.143e-05
1.143e-05
1.143e-05
1.143e-05
1.143e-05
1.143e-05
1.14e-05
1.143e-05
1.14e-05
1.143e-05
1.14e-05
1.14e-05
1.14e-05
1.14e-05
1.14e-05
1.14e-05
1.14e-05
1.14e-05
1.14e-05
1.14e-05
1.14e-05
1.14e-05
1.14e-05
1.138e-05
1.14e-05
1.138e-05
1.14e-05
1.138e-05
1.138e-05
1.138e-05
1.138e-05
1.138e-05
1.138e-05
1.138e-05
1.138e-05
1.138e-05
1.138e-05
1.138e-05
1.138e-05
1.135e-05
1.135e-05
1.135e-05
1.135e-05
1.135e-05
1.135e-05
1.135e-05
1.135e-05
1.135e-05
1.135e-05
1.135e-05
1.135e-05
1.135e-05
1.135e-05
1.135e-05
1.135e-05
1.133e-05
1.135e-05
1.133e-05
1.133e-05
1.133e-05
1.133e-05
1.133e-05
1.133e-05
1.133e-05
1.133e-05
1.133e-05
1.133e-05
1.133e-05
1.133e-05
1.133e-05
1.133e-05
1.133e-05
1.133e-05
1.133e-05
1.133e-05
1.13e-05
1.13e-05
1.13e-05
1.13e-05
1.13e-05
1.13e-05
1.13e-05
1.13e-05
1.13e-05
1.13e-05
1.13e-05
1.13e-05
1.13e-05
1.13e-05
1.13e-05
1.13e-05
1.13e-05
1.13e-05
1.13e-05
1.13e-05
1.13e-05
1.13e-05
1.13e-05
1.13e-05
1.13e-05
1.13e-05
1.13e-05
1.13e-05
1.13e-05
1.13e-05
1.13e-05
1.13e-05
1.13e-05
1.13e-05
1.13e-05
1.13e-05
1.13e-05
1.13e-05
1.13e-05
1.13e-05
1.13e-05
1.13e-05
1.13e-05
1.13e-05
1.128e-05
1.128e-05
1.13e-05
1.13e-05
1.13e-05
1.128e-05
1.128e-05
1.128e-05
1.128e-05
1.128e-05
1.128e-05
1.128e-05
1.128e-05
1.128e-05
1.128e-05
1.128e-05
1.128e-05
1.128e-05
1.128e-05
1.13e-05
1.128e-05
1.13e-05
1.13e-05
1.13e-05
1.13e-05
1.13e-05
1.13e-05
1.13e-05
1.13e-05
1.13e-05
1.13e-05
1.13e-05
1.13e-05
1.133e-05
1.13e-05
1.133e-05
1.133e-05
1.133e-05
1.133e-05
1.133e-05
1.133e-05
1.135e-05
1.135e-05
1.135e-05
1.135e-05
1.135e-05
1.135e-05
1.138e-05
1.138e-05
1.138e-05
1.138e-05
1.14e-05
1.14e-05
1.14e-05
1.14e-05
1.14e-05
1.14e-05
1.143e-05
1.143e-05
1.143e-05
1.143e-05
1.145e-05
1.145e-05
1.145e-05
1.145e-05
1.147e-05
1.147e-05
1.147e-05
1.147e-05
1.15e-05
1.15e-05
1.15e-05
1.15e-05
1.152e-05
1.152e-05
1.152e-05
1.152e-05
1.152e-05
1.152e-05
1.152e-05
1.155e-05
1.155e-05
1.155e-05
1.155e-05
1.155e-05
1.157e-05
1.157e-05
1.157e-05
1.16e-05
1.16e-05
1.16e-05
1.16e-05
1.16e-05
1.162e-05
1.162e-05
1.162e-05
1.162e-05
1.162e-05
1.162e-05
1.165e-05
1.165e-05
1.165e-05
1.165e-05
1.165e-05
1.165e-05
1.167e-05
1.165e-05
1.167e-05
1.167e-05
1.167e-05
1.167e-05
1.167e-05
1.167e-05
1.169e-05
1.169e-05
1.169e-05
1.169e-05
1.169e-05
1.169e-05
1.169e-05
1.169e-05
1.169e-05
1.169e-05
1.169e-05
1.169e-05
1.169e-05
1.169e-05
1.169e-05
1.169e-05
1.172e-05
1.172e-05
1.172e-05
1.172e-05
1.172e-05
1.172e-05
1.172e-05
1.172e-05
1.172e-05
1.172e-05
1.172e-05
1.172e-05
1.172e-05
1.172e-05
1.172e-05
1.172e-05
1.172e-05
1.172e-05
1.172e-05
1.172e-05
1.172e-05
1.172e-05
1.172e-05
1.172e-05
1.172e-05
1.172e-05
1.172e-05
1.172e-05
1.172e-05
1.172e-05
1.169e-05
1.169e-05
1.169e-05
1.169e-05
1.169e-05
1.169e-05
1.169e-05
1.169e-05
1.169e-05
1.169e-05
1.169e-05
1.169e-05
1.169e-05
1.167e-05
1.169e-05
1.167e-05
1.167e-05
1.167e-05
1.167e-05
1.167e-05
1.167e-05
1.167e-05
1.167e-05
1.167e-05
1.167e-05
1.165e-05
1.167e-05
1.167e-05
1.165e-05
1.165e-05
1.165e-05
1.165e-05
1.165e-05
1.165e-05
1.165e-05
1.165e-05
1.165e-05
1.162e-05
1.162e-05
1.162e-05
1.162e-05
1.162e-05
1.162e-05
1.162e-05
1.162e-05
1.162e-05
1.162e-05
1.16e-05
1.16e-05
1.16e-05
1.16e-05
1.16e-05
1.16e-05
1.157e-05
1.16e-05
1.157e-05
1.157e-05
1.157e-05
1.155e-05
1.155e-05
1.155e-05
1.155e-05
1.155e-05
1.155e-05
1.155e-05
1.152e-05
1.152e-05
1.152e-05
1.152e-05
1.152e-05
1.152e-05
1.152e-05
1.15e-05
1.152e-05
1.15e-05
1.15e-05
1.15e-05
1.15e-05
1.15e-05
1.15e-05
1.147e-05
1.147e-05
1.147e-05
1.147e-05
1.147e-05
1.147e-05
1.147e-05
1.147e-05
1.145e-05
1.145e-05
1.145e-05
1.145e-05
1.145e-05
1.145e-05
1.145e-05
1.143e-05
1.143e-05
1.143e-05
1.143e-05
1.143e-05
1.143e-05
1.143e-05
1.143e-05
1.143e-05
1.143e-05
1.14e-05
1.14e-05
1.14e-05
1.14e-05
1.14e-05
1.14e-05
1.14e-05
1.14e-05
1.14e-05
1.14e-05
1.138e-05
1.138e-05
1.138e-05
1.138e-05
1.138e-05
1.138e-05
1.135e-05
1.138e-05
1.135e-05
1.135e-05
1.135e-05
1.135e-05
1.135e-05
1.135e-05
1.135e-05
1.135e-05
1.135e-05
1.135e-05
1.133e-05
1.133e-05
1.133e-05
1.133e-05
1.133e-05
1.133e-05
1.133e-05
1.133e-05
1.13e-05
1.13e-05
1.13e-05
1.13e-05
1.13e-05
1.13e-05
1.13e-05
1.13e-05
1.13e-05
1.13e-05
1.13e-05
1.13e-05
1.13e-05
1.13e-05
1.128e-05
1.128e-05
1.128e-05
1.128e-05
1.128e-05
1.128e-05
1.128e-05
1.128e-05
1.128e-05
1.128e-05
1.128e-05
1.128e-05
1.128e-05
1.125e-05
1.125e-05
1.128e-05
1.125e-05
1.125e-05
1.125e-05
1.125e-05
1.125e-05
1.125e-05
1.125e-05
1.123e-05
1.123e-05
1.123e-05
1.123e-05
1.123e-05
1.123e-05
1.123e-05
1.123e-05
1.123e-05
1.123e-05
1.123e-05
1.123e-05
1.123e-05
1.123e-05
1.123e-05
1.123e-05
1.123e-05
1.123e-05
1.123e-05
1.121e-05
1.123e-05
1.121e-05
1.121e-05
1.121e-05
1.121e-05
1.121e-05
1.121e-05
1.121e-05
1.121e-05
1.121e-05
1.121e-05
1.121e-05
1.118e-05
1.118e-05
1.121e-05
1.118e-05
1.118e-05
1.118e-05
1.118e-05
1.118e-05
1.118e-05
1.118e-05
1.118e-05
1.118e-05
1.118e-05
1.118e-05
1.118e-05
1.118e-05
1.118e-05
1.118e-05
1.118e-05
1.118e-05
1.118e-05
1.118e-05
1.118e-05
1.118e-05
1.116e-05
1.116e-05
1.116e-05
1.116e-05
1.116e-05
1.116e-05
1.116e-05
1.116e-05
1.116e-05
1.116e-05
1.116e-05
1.116e-05
1.116e-05
1.116e-05
1.116e-05
1.116e-05
1.116e-05
1.116e-05
1.116e-05
1.113e-05
1.113e-05
1.113e-05
1.116e-05
1.113e-05
1.113e-05
1.113e-05
1.113e-05
1.113e-05
1.113e-05
1.113e-05
1.113e-05
1.113e-05
1.113e-05
1.113e-05
1.113e-05
1.113e-05
1.113e-05
1.113e-05
1.113e-05
1.111e-05
1.113e-05
1.111e-05
1.113e-05
1.111e-05
1.111e-05
1.111e-05
1.111e-05
1.111e-05
1.111e-05
1.111e-05
1.111e-05
1.111e-05
1.111e-05
1.111e-05
1.111e-05
1.111e-05
1.111e-05
1.111e-05
1.111e-05
1.111e-05
1.111e-05
1.111e-05
1.111e-05
1.111e-05
1.111e-05
1.111e-05
1.111e-05
1.111e-05
1.111e-05
1.111e-05
1.111e-05
1.111e-05
1.111e-05
1.108e-05
1.108e-05
1.108e-05
1.111e-05
1.108e-05
1.108e-05
1.108e-05
1.108e-05
1.108e-05
1.108e-05
1.108e-05
1.108e-05
1.108e-05
1.108e-05
1.108e-05
1.108e-05
1.108e-05
1.108e-05
1.108e-05
1.108e-05
1.108e-05
1.108e-05
1.108e-05
1.106e-05
1.106e-05
1.106e-05
1.106e-05
1.106e-05
1.106e-05
1.106e-05
1.106e-05
1.106e-05
1.106e-05
1.106e-05
1.106e-05
1.106e-05
1.106e-05
1.106e-05
1.104e-05
1.106e-05
1.104e-05
1.104e-05
1.104e-05
1.104e-05
1.104e-05
1.104e-05
1.104e-05
1.104e-05
1.104e-05
1.104e-05
1.104e-05
1.104e-05
1.104e-05
1.104e-05
1.104e-05
1.104e-05
1.104e-05
1.104e-05
1.101e-05
1.101e-05
1.104e-05
1.101e-05
1.101e-05
1.101e-05
1.101e-05
1.101e-05
1.101e-05
1.101e-05
1.101e-05
1.101e-05
1.101e-05
1.101e-05
1.101e-05
1.101e-05
1.101e-05
1.101e-05
1.101e-05
1.101e-05
1.101e-05
1.101e-05
1.101e-05
1.101e-05
1.101e-05
1.101e-05
1.101e-05
1.101e-05
1.101e-05
1.101e-05
1.099e-05
1.099e-05
1.099e-05
1.099e-05
1.099e-05
1.099e-05
1.099e-05
1.099e-05
1.099e-05
1.099e-05
1.099e-05
1.099e-05
1.099e-05
1.099e-05
1.099e-05
1.099e-05
1.099e-05
1.099e-05
1.099e-05
1.099e-05
1.099e-05
1.099e-05
1.096e-05
1.096e-05
1.096e-05
1.096e-05
1.096e-05
1.096e-05
1.096e-05
1.096e-05
1.096e-05
1.096e-05
1.096e-05
1.096e-05
1.096e-05
1.096e-05
1.096e-05
1.096e-05
1.096e-05
1.096e-05
1.096e-05
1.096e-05
1.096e-05
1.096e-05
1.096e-05
1.096e-05
1.096e-05
1.096e-05
1.096e-05
1.096e-05
1.096e-05
1.096e-05
1.096e-05
1.096e-05
1.096e-05
1.096e-05
1.099e-05
1.096e-05
1.096e-05
1.099e-05
1.096e-05
1.099e-05
1.096e-05
1.099e-05
1.096e-05
1.099e-05
1.096e-05
1.096e-05
1.096e-05
1.096e-05
1.096e-05
1.096e-05
1.096e-05
1.096e-05
1.096e-05
1.096e-05
1.096e-05
1.096e-05
1.096e-05
1.096e-05
1.096e-05
1.096e-05
1.096e-05
1.096e-05
1.096e-05
1.096e-05
1.096e-05
1.096e-05
1.096e-05
1.096e-05
1.096e-05
1.096e-05
1.096e-05
1.096e-05
1.096e-05
1.096e-05
1.096e-05
1.096e-05
1.096e-05
1.096e-05
1.096e-05
1.096e-05
1.096e-05
1.096e-05
1.096e-05
1.096e-05
1.096e-05
1.096e-05
1.096e-05
1.096e-05
1.096e-05
1.096e-05
1.096e-05
1.096e-05
1.096e-05
1.096e-05
1.096e-05
1.099e-05
1.096e-05
1.096e-05
1.099e-05
1.099e-05
1.099e-05
1.099e-05
1.099e-05
1.099e-05
1.099e-05
1.099e-05
1.099e-05
1.099e-05
1.099e-05
1.096e-05
1.099e-05
1.099e-05
1.099e-05
1.099e-05
1.099e-05
1.099e-05
1.099e-05
1.099e-05
1.099e-05
1.099e-05
1.099e-05
1.099e-05
1.099e-05
1.099e-05
1.099e-05
1.099e-05
1.099e-05
1.099e-05
1.099e-05
1.099e-05
1.099e-05
1.101e-05
1.099e-05
1.099e-05
1.099e-05
1.099e-05
1.099e-05
1.099e-05
1.099e-05
1.099e-05
1.099e-05
1.099e-05
1.099e-05
1.099e-05
1.099e-05
1.099e-05
1.099e-05
1.101e-05
1.099e-05
1.099e-05
1.099e-05
1.099e-05
1.101e-05
1.099e-05
1.099e-05
1.099e-05
1.099e-05
1.099e-05
1.099e-05
1.099e-05
1.099e-05
1.099e-05
1.099e-05
1.099e-05
1.099e-05
1.099e-05
1.099e-05
1.099e-05
1.099e-05
1.099e-05
1.099e-05
1.099e-05
1.096e-05
1.096e-05
1.096e-05
1.099e-05
1.096e-05
1.096e-05
1.096e-05
1.096e-05
1.096e-05
1.096e-05
1.096e-05
1.096e-05
1.096e-05
1.096e-05
1.096e-05
1.096e-05
1.096e-05
1.096e-05
1.096e-05
1.096e-05
1.096e-05
1.096e-05
1.096e-05
1.096e-05
1.096e-05
1.096e-05
1.096e-05
1.096e-05
1.096e-05
1.096e-05
1.096e-05
1.096e-05
1.096e-05
1.096e-05
1.096e-05
1.096e-05
1.096e-05
1.096e-05
1.096e-05
1.094e-05
1.094e-05
1.094e-05
1.094e-05
1.094e-05
1.094e-05
1.094e-05
1.094e-05
1.094e-05
1.094e-05
1.094e-05
1.094e-05
1.094e-05
1.094e-05
1.094e-05
1.094e-05
1.094e-05
1.094e-05
1.094e-05
1.094e-05
1.094e-05
1.094e-05
1.091e-05
1.091e-05
1.091e-05
1.091e-05
1.091e-05
1.091e-05
1.091e-05
1.091e-05
1.091e-05
1.091e-05
1.091e-05
1.091e-05
1.091e-05
1.091e-05
1.091e-05
1.091e-05
1.091e-05
1.091e-05
1.091e-05
1.091e-05
1.091e-05
1.091e-05
1.089e-05
1.089e-05
1.089e-05
1.089e-05
1.089e-05
1.089e-05
1.089e-05
1.089e-05
1.089e-05
1.089e-05
1.089e-05
1.089e-05
1.089e-05
1.089e-05
1.089e-05
1.089e-05
1.089e-05
1.089e-05
1.089e-05
1.089e-05
1.089e-05
1.089e-05
1.089e-05
1.089e-05
1.089e-05
1.089e-05
1.089e-05
1.089e-05
1.089e-05
1.086e-05
1.089e-05
1.086e-05
1.086e-05
1.086e-05
1.086e-05
1.086e-05
1.086e-05
1.086e-05
1.086e-05
1.086e-05
1.086e-05
1.086e-05
1.086e-05
1.084e-05
1.086e-05
1.086e-05
1.086e-05
1.086e-05
1.086e-05
1.086e-05
1.084e-05
1.084e-05
1.086e-05
1.084e-05
1.084e-05
1.084e-05
1.084e-05
1.084e-05
1.084e-05
1.084e-05
1.084e-05
1.084e-05
1.084e-05
1.084e-05
1.084e-05
1.084e-05
1.084e-05
1.084e-05
1.084e-05
1.084e-05
1.084e-05
1.084e-05
1.084e-05
1.084e-05
1.084e-05
1.082e-05
1.082e-05
1.082e-05
1.082e-05
1.082e-05
1.082e-05
1.082e-05
1.082e-05
1.082e-05
1.082e-05
1.082e-05
1.082e-05
1.082e-05
1.082e-05
1.082e-05
1.082e-05
1.082e-05
1.082e-05
1.082e-05
1.082e-05
1.082e-05
1.082e-05
1.079e-05
1.082e-05
1.079e-05
1.079e-05
1.079e-05
1.079e-05
1.079e-05
1.079e-05
1.079e-05
1.079e-05
1.079e-05
1.079e-05
1.079e-05
1.079e-05
1.079e-05
1.079e-05
1.077e-05
1.077e-05
1.077e-05
1.077e-05
1.077e-05
1.077e-05
1.077e-05
1.077e-05
1.077e-05
1.079e-05
1.077e-05
1.079e-05
1.077e-05
1.079e-05
1.079e-05
1.077e-05
1.077e-05
1.077e-05
1.077e-05
1.077e-05
1.077e-05
1.077e-05
1.077e-05
1.077e-05
1.077e-05
1.077e-05
1.077e-05
1.077e-05
1.077e-05
1.077e-05
1.077e-05
1.077e-05
1.077e-05
1.077e-05
1.077e-05
1.077e-05
1.077e-05
1.077e-05
1.077e-05
1.077e-05
1.077e-05
1.077e-05
1.077e-05
1.077e-05
1.077e-05
1.077e-05
1.077e-05
1.077e-05
1.077e-05
1.077e-05
1.077e-05
1.074e-05
1.074e-05
1.074e-05
1.074e-05
1.074e-05
1.074e-05
1.074e-05
1.074e-05
1.074e-05
1.074e-05
1.074e-05
1.074e-05
1.074e-05
1.074e-05
1.074e-05
1.074e-05
1.074e-05
1.074e-05
1.074e-05
1.074e-05
1.074e-05
1.074e-05
1.074e-05
1.074e-05
1.074e-05
1.074e-05
1.074e-05
1.074e-05
1.074e-05
1.074e-05
1.074e-05
1.074e-05
1.074e-05
1.072e-05
1.072e-05
1.072e-05
1.072e-05
1.069e-05
1.072e-05
1.069e-05
1.072e-05
1.072e-05
1.069e-05
1.072e-05
1.072e-05
1.072e-05
1.069e-05
1.072e-05
1.072e-05
1.069e-05
1.069e-05
1.069e-05
1.069e-05
1.069e-05
1.069e-05
1.069e-05
1.072e-05
1.069e-05
1.072e-05
1.072e-05
1.072e-05
1.069e-05
1.069e-05
1.069e-05
1.069e-05
1.069e-05
1.069e-05
1.069e-05
1.069e-05
1.069e-05
1.069e-05
1.069e-05
1.072e-05
1.069e-05
1.069e-05
1.069e-05
1.069e-05
1.069e-05
1.072e-05
1.069e-05
1.069e-05
1.069e-05
1.069e-05
1.072e-05
1.069e-05
1.069e-05
1.069e-05
1.069e-05
1.072e-05
1.069e-05
1.069e-05
1.069e-05
1.069e-05
1.069e-05
1.069e-05
1.069e-05
1.072e-05
1.069e-05
1.072e-05
1.072e-05
1.072e-05
1.072e-05
1.072e-05
1.072e-05
1.072e-05
1.072e-05
1.072e-05
1.072e-05
1.072e-05
1.072e-05
1.072e-05
1.072e-05
1.074e-05
1.074e-05
1.074e-05
1.074e-05
1.074e-05
1.074e-05
1.074e-05
1.074e-05
1.077e-05
1.077e-05
1.077e-05
1.077e-05
1.077e-05
1.077e-05
1.079e-05
1.079e-05
1.079e-05
1.082e-05
1.082e-05
1.082e-05
1.082e-05
1.084e-05
1.084e-05
1.084e-05
1.084e-05
1.084e-05
1.086e-05
1.086e-05
1.089e-05
1.089e-05
1.089e-05
1.089e-05
1.091e-05
1.091e-05
1.091e-05
1.094e-05
1.094e-05
1.094e-05
1.094e-05
1.096e-05
1.096e-05
1.096e-05
1.099e-05
1.099e-05
1.101e-05
1.101e-05
1.101e-05
1.101e-05
1.101e-05
1.104e-05
1.104e-05
1.106e-05
1.106e-05
1.106e-05
1.108e-05
1.108e-05
1.108e-05
1.111e-05
1.111e-05
1.111e-05
1.111e-05
1.113e-05
1.113e-05
1.113e-05
1.116e-05
1.116e-05
1.116e-05
1.116e-05
1.118e-05
1.118e-05
1.118e-05
1.121e-05
1.121e-05
1.121e-05
1.121e-05
1.123e-05
1.123e-05
1.123e-05
1.123e-05
1.123e-05
1.123e-05
1.125e-05
1.125e-05
1.125e-05
1.125e-05
1.125e-05
1.125e-05
1.128e-05
1.128e-05
1.128e-05
1.128e-05
1.128e-05
1.128e-05
1.128e-05
1.13e-05
1.13e-05
1.13e-05
1.13e-05
1.13e-05
1.13e-05
1.13e-05
1.13e-05
1.13e-05
1.13e-05
1.13e-05
1.13e-05
1.133e-05
1.133e-05
1.133e-05
1.133e-05
1.133e-05
1.133e-05
1.133e-05
1.133e-05
1.133e-05
1.133e-05
1.133e-05
1.133e-05
1.133e-05
1.133e-05
1.133e-05
1.135e-05
1.135e-05
1.135e-05
1.135e-05
1.135e-05
1.135e-05
1.135e-05
1.138e-05
1.135e-05
1.138e-05
1.138e-05
1.138e-05
1.138e-05
1.138e-05
1.138e-05
1.138e-05
1.138e-05
1.138e-05
1.138e-05
1.138e-05
1.138e-05
1.138e-05
1.138e-05
1.138e-05
1.138e-05
1.138e-05
1.135e-05
1.135e-05
1.138e-05
1.135e-05
1.135e-05
1.135e-05
1.138e-05
1.135e-05
1.135e-05
1.135e-05
1.135e-05
1.135e-05
1.135e-05
1.135e-05
1.135e-05
1.135e-05
1.135e-05
1.135e-05
1.135e-05
1.135e-05
1.135e-05
1.135e-05
1.135e-05
1.135e-05
1.135e-05
1.135e-05
1.133e-05
1.133e-05
1.133e-05
1.133e-05
1.133e-05
1.133e-05
1.133e-05
1.133e-05
1.133e-05
1.133e-05
1.133e-05
1.133e-05
1.13e-05
1.13e-05
1.13e-05
1.13e-05
1.13e-05
1.13e-05
1.13e-05
1.13e-05
1.13e-05
1.13e-05
1.13e-05
1.13e-05
1.128e-05
1.128e-05
1.128e-05
1.128e-05
1.128e-05
1.128e-05
1.128e-05
1.128e-05
1.128e-05
1.125e-05
1.128e-05
1.125e-05
1.125e-05
1.125e-05
1.125e-05
1.125e-05
1.123e-05
1.123e-05
1.123e-05
1.123e-05
1.123e-05
1.123e-05
1.123e-05
1.123e-05
