1.26709e-05
1.26953e-05
1.26709e-05
1.26953e-05
1.26709e-05
1.27197e-05
1.26953e-05
1.27197e-05
1.26953e-05
1.27197e-05
1.27197e-05
1.27441e-05
1.27197e-05
1.27441e-05
1.27197e-05
1.27686e-05
1.27441e-05
1.27686e-05
1.27441e-05
1.27686e-05
1.27441e-05
1.2793e-05
1.27686e-05
1.2793e-05
1.27686e-05
1.2793e-05
1.27686e-05
1.2793e-05
1.2793e-05
1.2793e-05
1.2793e-05
1.28174e-05
1.2793e-05
1.28174e-05
1.2793e-05
1.28174e-05
1.2793e-05
1.28174e-05
1.2793e-05
1.28418e-05
1.28174e-05
1.28662e-05
1.28174e-05
1.28418e-05
1.28174e-05
1.28662e-05
1.28418e-05
1.28662e-05
1.28418e-05
1.28662e-05
1.28418e-05
1.28662e-05
1.28418e-05
1.28662e-05
1.28418e-05
1.28906e-05
1.28418e-05
1.28662e-05
1.28662e-05
1.28906e-05
1.28662e-05
1.28906e-05
1.28662e-05
1.28906e-05
1.28662e-05
1.28906e-05
1.28662e-05
1.28906e-05
1.28662e-05
1.2915e-05
1.28662e-05
1.2915e-05
1.28662e-05
1.2915e-05
1.28662e-05
1.2915e-05
1.28662e-05
1.2915e-05
1.28906e-05
1.2915e-05
1.28662e-05
1.2915e-05
1.28906e-05
1.2915e-05
1.28906e-05
1.2915e-05
1.28906e-05
1.2915e-05
1.28906e-05
1.29395e-05
1.28906e-05
1.2915e-05
1.28906e-05
1.29395e-05
1.28906e-05
1.2915e-05
1.28906e-05
1.29395e-05
1.28906e-05
1.29395e-05
1.28906e-05
1.29395e-05
1.28906e-05
1.2915e-05
1.28906e-05
1.29395e-05
1.28906e-05
1.2915e-05
1.28906e-05
1.2915e-05
1.28906e-05
1.2915e-05
1.28906e-05
1.2915e-05
1.28906e-05
1.2915e-05
1.28906e-05
1.2915e-05
1.28906e-05
1.2915e-05
1.28906e-05
1.2915e-05
1.28662e-05
1.2915e-05
1.28906e-05
1.2915e-05
1.28906e-05
1.2915e-05
1.28662e-05
1.2915e-05
1.28662e-05
1.2915e-05
1.28662e-05
1.2915e-05
1.28662e-05
1.2915e-05
1.28662e-05
1.2915e-05
1.28662e-05
1.28906e-05
1.28662e-05
1.2915e-05
1.28662e-05
1.28906e-05
1.28662e-05
1.28906e-05
1.28662e-05
1.28906e-05
1.28662e-05
1.28906e-05
1.28662e-05
1.28906e-05
1.28418e-05
1.28906e-05
1.28418e-05
1.28906e-05
1.28418e-05
1.28906e-05
1.28418e-05
1.28662e-05
1.28418e-05
1.28662e-05
1.28418e-05
1.28662e-05
1.28418e-05
1.28662e-05
1.28418e-05
1.28662e-05
1.28174e-05
1.28662e-05
1.28418e-05
1.28662e-05
1.28174e-05
1.28662e-05
1.28174e-05
1.28662e-05
1.28174e-05
1.28662e-05
1.28174e-05
1.28418e-05
1.28174e-05
1.28662e-05
1.28174e-05
1.28418e-05
1.28174e-05
1.28418e-05
1.2793e-05
1.28418e-05
1.2793e-05
1.28418e-05
1.2793e-05
1.28418e-05
1.2793e-05
1.28418e-05
1.2793e-05
1.28174e-05
1.2793e-05
1.28418e-05
1.2793e-05
1.28174e-05
1.2793e-05
1.28418e-05
1.2793e-05
1.28174e-05
1.27686e-05
1.28174e-05
1.2793e-05
1.28174e-05
1.27686e-05
1.28174e-05
1.27686e-05
1.2793e-05
1.27686e-05
1.2793e-05
1.27686e-05
1.2793e-05
1.27686e-05
1.2793e-05
1.27441e-05
1.2793e-05
1.27441e-05
1.2793e-05
1.27441e-05
1.2793e-05
1.27441e-05
1.2793e-05
1.27441e-05
1.2793e-05
1.27441e-05
1.2793e-05
1.27197e-05
1.27686e-05
1.27197e-05
1.27686e-05
1.27197e-05
1.27686e-05
1.27197e-05
1.27686e-05
1.27197e-05
1.27686e-05
1.27197e-05
1.27686e-05
1.27197e-05
1.27441e-05
1.27197e-05
1.27686e-05
1.27197e-05
1.27441e-05
1.26953e-05
1.27441e-05
1.26953e-05
1.27441e-05
1.26953e-05
1.27441e-05
1.26709e-05
1.27441e-05
1.26709e-05
1.27441e-05
1.26709e-05
1.27197e-05
1.26709e-05
1.27441e-05
1.26709e-05
1.27197e-05
1.26709e-05
1.27197e-05
1.26709e-05
1.27197e-05
1.26709e-05
1.27197e-05
1.26709e-05
1.27197e-05
1.26709e-05
1.27197e-05
1.26709e-05
1.27197e-05
1.26709e-05
1.27197e-05
1.26709e-05
1.27197e-05
1.26465e-05
1.26953e-05
1.26709e-05
1.26953e-05
1.26709e-05
1.26953e-05
1.26465e-05
1.26953e-05
1.26465e-05
1.26953e-05
1.26465e-05
1.26953e-05
1.26465e-05
1.26953e-05
1.26465e-05
1.26709e-05
1.26465e-05
1.26953e-05
1.26465e-05
1.26709e-05
1.26221e-05
1.26953e-05
1.26221e-05
1.26709e-05
1.26221e-05
1.26709e-05
1.26221e-05
1.26709e-05
1.26221e-05
1.26709e-05
1.26221e-05
1.26709e-05
1.26221e-05
1.26709e-05
1.26221e-05
1.26709e-05
1.26221e-05
1.26709e-05
1.25977e-05
1.26709e-05
1.25977e-05
1.26709e-05
1.25977e-05
1.26465e-05
1.25977e-05
1.26465e-05
1.25977e-05
1.26465e-05
1.25977e-05
1.26465e-05
1.25977e-05
1.26465e-05
1.25732e-05
1.26465e-05
1.25732e-05
1.26465e-05
1.25732e-05
1.26465e-05
1.25732e-05
1.26221e-05
1.25732e-05
1.26221e-05
1.25732e-05
1.26221e-05
1.25732e-05
1.26221e-05
1.25488e-05
1.25977e-05
1.25488e-05
1.25977e-05
1.25488e-05
1.25977e-05
1.25488e-05
1.25977e-05
1.25488e-05
1.25977e-05
1.25244e-05
1.25977e-05
1.25244e-05
1.25732e-05
1.25244e-05
1.25977e-05
1.25244e-05
1.25732e-05
1.25244e-05
1.25732e-05
1.25244e-05
1.25732e-05
1.25e-05
1.25732e-05
1.25e-05
1.25732e-05
1.25e-05
1.25732e-05
1.25e-05
1.25488e-05
1.25e-05
1.25488e-05
1.25e-05
1.25244e-05
1.24756e-05
1.25244e-05
1.24756e-05
1.25244e-05
1.24756e-05
1.25244e-05
1.24756e-05
1.25244e-05
1.24756e-05
1.25244e-05
1.24756e-05
1.25e-05
1.24512e-05
1.25e-05
1.24512e-05
1.25e-05
1.24512e-05
1.25e-05
1.24512e-05
1.25e-05
1.24512e-05
1.25e-05
1.24268e-05
1.24756e-05
1.24268e-05
1.24756e-05
1.24268e-05
1.24756e-05
1.24268e-05
1.24756e-05
1.24268e-05
1.24756e-05
1.24268e-05
1.24756e-05
1.24023e-05
1.24512e-05
1.24023e-05
1.24512e-05
1.24023e-05
1.24512e-05
1.24023e-05
1.24512e-05
1.24023e-05
1.24512e-05
1.23779e-05
1.24268e-05
1.23779e-05
1.24268e-05
1.23779e-05
1.24268e-05
1.23779e-05
1.24268e-05
1.23535e-05
1.24023e-05
1.23535e-05
1.24023e-05
1.23535e-05
1.24023e-05
1.23535e-05
1.24023e-05
1.23535e-05
1.24023e-05
1.23291e-05
1.24023e-05
1.23291e-05
1.24023e-05
1.23291e-05
1.23779e-05
1.23291e-05
1.23779e-05
1.23291e-05
1.23779e-05
1.23047e-05
1.23779e-05
1.23047e-05
1.23779e-05
1.23047e-05
1.23779e-05
1.23047e-05
1.23535e-05
1.23047e-05
1.23535e-05
1.23047e-05
1.23535e-05
1.23047e-05
1.23535e-05
1.22803e-05
1.23291e-05
1.23047e-05
1.23535e-05
1.22803e-05
1.23291e-05
1.22803e-05
1.23291e-05
1.22803e-05
1.23291e-05
1.22803e-05
1.23291e-05
1.22803e-05
1.23291e-05
1.22803e-05
1.23291e-05
1.22559e-05
1.23047e-05
1.22559e-05
1.23047e-05
1.22559e-05
1.23047e-05
1.22559e-05
1.23047e-05
1.22559e-05
1.23047e-05
1.22559e-05
1.23047e-05
1.22559e-05
1.22803e-05
1.22314e-05
1.23047e-05
1.22314e-05
1.22803e-05
1.22314e-05
1.22803e-05
1.22314e-05
1.22803e-05
1.2207e-05
1.22803e-05
1.2207e-05
1.22803e-05
1.2207e-05
1.22803e-05
1.2207e-05
1.22559e-05
1.2207e-05
1.22803e-05
1.2207e-05
1.22559e-05
1.2207e-05
1.22803e-05
1.2207e-05
1.22559e-05
1.21826e-05
1.22559e-05
1.21826e-05
1.22559e-05
1.21826e-05
1.22559e-05
1.21826e-05
1.22314e-05
1.21826e-05
1.22559e-05
1.21826e-05
1.22559e-05
1.21826e-05
1.22559e-05
1.21826e-05
1.22314e-05
1.21826e-05
1.22559e-05
1.21826e-05
1.22314e-05
1.21826e-05
1.22314e-05
1.21826e-05
1.22314e-05
1.21826e-05
1.22314e-05
1.21826e-05
1.22314e-05
1.21582e-05
1.22314e-05
1.21582e-05
1.22314e-05
1.21582e-05
1.2207e-05
1.21582e-05
1.2207e-05
1.21582e-05
1.22314e-05
1.21582e-05
1.2207e-05
1.21582e-05
1.2207e-05
1.21338e-05
1.2207e-05
1.21338e-05
1.2207e-05
1.21338e-05
1.2207e-05
1.21338e-05
1.2207e-05
1.21338e-05
1.2207e-05
1.21338e-05
1.2207e-05
1.21338e-05
1.21826e-05
1.21338e-05
1.2207e-05
1.21338e-05
1.21826e-05
1.21338e-05
1.2207e-05
1.21338e-05
1.21826e-05
1.21338e-05
1.21826e-05
1.21338e-05
1.21826e-05
1.21338e-05
1.21826e-05
1.21338e-05
1.21826e-05
1.21338e-05
1.21826e-05
1.21094e-05
1.21826e-05
1.21338e-05
1.21826e-05
1.21094e-05
1.21826e-05
1.21338e-05
1.21826e-05
1.21338e-05
1.21826e-05
1.21338e-05
1.21826e-05
1.21094e-05
1.21826e-05
1.21338e-05
1.21826e-05
1.21094e-05
1.21826e-05
1.21338e-05
1.21826e-05
1.21094e-05
1.21826e-05
1.21338e-05
1.21826e-05
1.21338e-05
1.21826e-05
1.21094e-05
1.21826e-05
1.21094e-05
1.21826e-05
1.21094e-05
1.21826e-05
1.21338e-05
1.21826e-05
1.21338e-05
1.21826e-05
1.21094e-05
1.21826e-05
1.21094e-05
1.21826e-05
1.21094e-05
1.21826e-05
1.21094e-05
1.21826e-05
1.21094e-05
1.21826e-05
1.21094e-05
1.21826e-05
1.21094e-05
1.21826e-05
1.21094e-05
1.21826e-05
1.21094e-05
1.21826e-05
1.21094e-05
1.21826e-05
1.21094e-05
1.21826e-05
1.21094e-05
1.21826e-05
1.21094e-05
1.21826e-05
1.21094e-05
1.21826e-05
1.21094e-05
1.21826e-05
1.21094e-05
1.21826e-05
1.21094e-05
1.21826e-05
1.21094e-05
1.21826e-05
1.21094e-05
1.21826e-05
1.21094e-05
1.21826e-05
1.21094e-05
1.21826e-05
1.21094e-05
1.21826e-05
1.21094e-05
1.21826e-05
1.21094e-05
1.21826e-05
1.21094e-05
1.21826e-05
1.21094e-05
1.21826e-05
1.21094e-05
1.21826e-05
1.21094e-05
1.21826e-05
1.21094e-05
1.21826e-05
1.21094e-05
1.21826e-05
1.21094e-05
1.21826e-05
1.2085e-05
1.21826e-05
1.21094e-05
1.21826e-05
1.21094e-05
1.21826e-05
1.21094e-05
1.21826e-05
1.21094e-05
1.21582e-05
1.21094e-05
1.21826e-05
1.21094e-05
1.21582e-05
1.21094e-05
1.21582e-05
1.21094e-05
1.21582e-05
1.21094e-05
1.21582e-05
1.21094e-05
1.21582e-05
1.21094e-05
1.21582e-05
1.21094e-05
1.21582e-05
1.21094e-05
1.21582e-05
1.21094e-05
1.21826e-05
1.21094e-05
1.21582e-05
1.21094e-05
1.21826e-05
1.21094e-05
1.21582e-05
1.21094e-05
1.21582e-05
1.21094e-05
1.21582e-05
1.21094e-05
1.21826e-05
1.21094e-05
1.21582e-05
1.21094e-05
1.21826e-05
1.21094e-05
1.21826e-05
1.21094e-05
1.21826e-05
1.21094e-05
1.21582e-05
1.21094e-05
1.21826e-05
1.21094e-05
1.21826e-05
1.21094e-05
1.21826e-05
1.21094e-05
1.21826e-05
1.21094e-05
1.21826e-05
1.21094e-05
1.21826e-05
1.21094e-05
1.21826e-05
1.21094e-05
1.21826e-05
1.21094e-05
1.21826e-05
1.21094e-05
1.21826e-05
1.21094e-05
1.21826e-05
1.21094e-05
1.21826e-05
1.21094e-05
1.21826e-05
1.21338e-05
1.21826e-05
1.21338e-05
1.2207e-05
1.21338e-05
1.21826e-05
1.21338e-05
1.2207e-05
1.21338e-05
1.21826e-05
1.21338e-05
1.21826e-05
1.21338e-05
1.2207e-05
1.21338e-05
1.2207e-05
1.21338e-05
1.2207e-05
1.21338e-05
1.2207e-05
1.21338e-05
1.2207e-05
1.21338e-05
1.2207e-05
1.21338e-05
1.2207e-05
1.21338e-05
1.2207e-05
1.21338e-05
1.2207e-05
1.21338e-05
1.2207e-05
1.21338e-05
1.2207e-05
1.21338e-05
1.2207e-05
1.21338e-05
1.2207e-05
1.21338e-05
1.2207e-05
1.21338e-05
1.2207e-05
1.21582e-05
1.2207e-05
1.21338e-05
1.22314e-05
1.21338e-05
1.2207e-05
1.21338e-05
1.22314e-05
1.21582e-05
1.2207e-05
1.21338e-05
1.2207e-05
1.21338e-05
1.2207e-05
1.21582e-05
1.2207e-05
1.21338e-05
1.2207e-05
1.21338e-05
1.2207e-05
1.21582e-05
1.2207e-05
1.21338e-05
1.2207e-05
1.21582e-05
1.2207e-05
1.21338e-05
1.2207e-05
1.21338e-05
1.2207e-05
1.21338e-05
1.2207e-05
1.21338e-05
1.2207e-05
1.21338e-05
1.2207e-05
1.21338e-05
1.2207e-05
1.2207e-05
1.21338e-05
1.2207e-05
1.21582e-05
1.2207e-05
1.21582e-05
1.2207e-05
1.21582e-05
1.2207e-05
1.21338e-05
1.2207e-05
1.21338e-05
1.2207e-05
1.21338e-05
1.21826e-05
1.22559e-05
1.21826e-05
1.22314e-05
1.21582e-05
1.22314e-05
1.21582e-05
1.2207e-05
1.21338e-05
1.2207e-05
1.21338e-05
1.2207e-05
1.21338e-05
1.2207e-05
1.21826e-05
1.21094e-05
1.21826e-05
1.21826e-05
1.21094e-05
1.21826e-05
1.21094e-05
1.21826e-05
1.21094e-05
1.21826e-05
1.21094e-05
1.21826e-05
1.21094e-05
1.21826e-05
1.21094e-05
1.21826e-05
1.21094e-05
1.21826e-05
1.21094e-05
1.21826e-05
1.21094e-05
1.21826e-05
1.21094e-05
1.21826e-05
1.21094e-05
1.21826e-05
1.21094e-05
1.21826e-05
1.21094e-05
1.21826e-05
1.21094e-05
1.21826e-05
1.21094e-05
1.21582e-05
1.21094e-05
1.21826e-05
1.21094e-05
1.21582e-05
1.21094e-05
1.21582e-05
1.2085e-05
1.21826e-05
1.21094e-05
1.21826e-05
1.21094e-05
1.21582e-05
1.2085e-05
1.21582e-05
1.21094e-05
1.21582e-05
1.2085e-05
1.21582e-05
1.2085e-05
1.21582e-05
1.2085e-05
1.21582e-05
1.2085e-05
1.21338e-05
1.2085e-05
1.21338e-05
1.2085e-05
1.21338e-05
1.2085e-05
1.21338e-05
1.2085e-05
1.21338e-05
1.20605e-05
1.21338e-05
1.2085e-05
1.21338e-05
1.20605e-05
1.21338e-05
1.2085e-05
1.21338e-05
1.20605e-05
1.21338e-05
1.20605e-05
1.21338e-05
1.20605e-05
1.21338e-05
1.2085e-05
1.21338e-05
1.20605e-05
1.21338e-05
1.20605e-05
1.21094e-05
1.20605e-05
1.21338e-05
1.20605e-05
1.21094e-05
1.20605e-05
1.21094e-05
1.20605e-05
1.21094e-05
1.20605e-05
1.21094e-05
1.20361e-05
1.21094e-05
1.20605e-05
1.21094e-05
1.20361e-05
1.21094e-05
1.20361e-05
1.21094e-05
1.20361e-05
1.21094e-05
1.20361e-05
1.21094e-05
1.20361e-05
1.2085e-05
1.20605e-05
1.20605e-05
1.2085e-05
1.20361e-05
1.2085e-05
1.20361e-05
1.2085e-05
1.20361e-05
1.20605e-05
1.20605e-05
1.20117e-05
1.2085e-05
1.20117e-05
1.2085e-05
1.20117e-05
1.2085e-05
1.20117e-05
1.2085e-05
1.20117e-05
1.2085e-05
1.20117e-05
1.20605e-05
1.19873e-05
1.20605e-05
1.20117e-05
1.20605e-05
1.19873e-05
1.20605e-05
1.20117e-05
1.20605e-05
1.19873e-05
1.20605e-05
1.19873e-05
1.20605e-05
1.19873e-05
1.20361e-05
1.19873e-05
1.20361e-05
1.19873e-05
1.20361e-05
1.19873e-05
1.20361e-05
1.19629e-05
1.20361e-05
1.19873e-05
1.20361e-05
1.19629e-05
1.20361e-05
1.19629e-05
1.20361e-05
1.19629e-05
1.20361e-05
1.19629e-05
1.20361e-05
1.19629e-05
1.20361e-05
1.19629e-05
1.20361e-05
1.19385e-05
1.20117e-05
1.19629e-05
1.20117e-05
1.19385e-05
1.20117e-05
1.19385e-05
1.20117e-05
1.19385e-05
1.20117e-05
1.19385e-05
1.20117e-05
1.19385e-05
1.20117e-05
1.19385e-05
1.20117e-05
1.19385e-05
1.20117e-05
1.19385e-05
1.20117e-05
1.19141e-05
1.19873e-05
1.19385e-05
1.20117e-05
1.19141e-05
1.20117e-05
1.19141e-05
1.19873e-05
1.19141e-05
1.19873e-05
1.19141e-05
1.19873e-05
1.19141e-05
1.19873e-05
1.19141e-05
1.19873e-05
1.19141e-05
1.19873e-05
1.19141e-05
1.19873e-05
1.18896e-05
1.19873e-05
1.18896e-05
1.19873e-05
1.18896e-05
1.19873e-05
1.18896e-05
1.19873e-05
1.18896e-05
1.19873e-05
1.18896e-05
1.19873e-05
1.18896e-05
1.19873e-05
1.18896e-05
1.19873e-05
1.18896e-05
1.19629e-05
1.18896e-05
1.19629e-05
1.18896e-05
1.19629e-05
1.18896e-05
1.19873e-05
1.18896e-05
1.19629e-05
1.18896e-05
1.19629e-05
1.18896e-05
1.19629e-05
1.18652e-05
1.19629e-05
1.18896e-05
1.19385e-05
1.18896e-05
1.19629e-05
1.18896e-05
1.19629e-05
1.18652e-05
1.19629e-05
1.18896e-05
1.19385e-05
1.18652e-05
1.19629e-05
1.18896e-05
1.19385e-05
1.18652e-05
1.19629e-05
1.18652e-05
1.19385e-05
1.18652e-05
1.19629e-05
1.18896e-05
1.19385e-05
1.18652e-05
1.19629e-05
1.18652e-05
1.19385e-05
1.18896e-05
1.19629e-05
1.18896e-05
1.19385e-05
1.18652e-05
1.19629e-05
1.18896e-05
1.19385e-05
1.18652e-05
1.19629e-05
1.18896e-05
1.19385e-05
1.18896e-05
1.19629e-05
1.18896e-05
1.19629e-05
1.18896e-05
1.19629e-05
1.18896e-05
1.19629e-05
1.18896e-05
1.19629e-05
1.18896e-05
1.19629e-05
1.18896e-05
1.19629e-05
1.18896e-05
1.19629e-05
1.18896e-05
1.19873e-05
1.18896e-05
1.19629e-05
1.18896e-05
1.19873e-05
1.18896e-05
1.19873e-05
1.19141e-05
1.19873e-05
1.18896e-05
1.19873e-05
1.19141e-05
1.19873e-05
1.19141e-05
1.19873e-05
1.19141e-05
1.19873e-05
1.19141e-05
1.20117e-05
1.19385e-05
1.20117e-05
1.19385e-05
1.20117e-05
1.19385e-05
1.20117e-05
1.19385e-05
1.20117e-05
1.19385e-05
1.20117e-05
1.19629e-05
1.20361e-05
1.19629e-05
1.20361e-05
1.19629e-05
1.20361e-05
1.19629e-05
1.20361e-05
1.19629e-05
1.20605e-05
1.19873e-05
1.20605e-05
1.19873e-05
1.20605e-05
1.19873e-05
1.2085e-05
1.19873e-05
1.20605e-05
1.19873e-05
1.2085e-05
1.20117e-05
1.2085e-05
1.19873e-05
1.2085e-05
1.20117e-05
1.2085e-05
1.20117e-05
1.2085e-05
1.20117e-05
1.21094e-05
1.20117e-05
1.21094e-05
1.20117e-05
1.21094e-05
1.20361e-05
1.21094e-05
1.20361e-05
1.21094e-05
1.20361e-05
1.21094e-05
1.20361e-05
1.21338e-05
1.20605e-05
1.21338e-05
1.20605e-05
1.21338e-05
1.20605e-05
1.21338e-05
1.20605e-05
1.21582e-05
1.20605e-05
1.21338e-05
1.20605e-05
1.21582e-05
1.2085e-05
1.21338e-05
1.21094e-05
1.21338e-05
1.21094e-05
1.21094e-05
1.21338e-05
1.21094e-05
1.21338e-05
1.21094e-05
1.21338e-05
1.21338e-05
1.21582e-05
1.21094e-05
1.21582e-05
1.21094e-05
1.21582e-05
1.21094e-05
1.21582e-05
1.21338e-05
1.21826e-05
1.21094e-05
1.21582e-05
1.21338e-05
1.21826e-05
1.21338e-05
1.21826e-05
1.21338e-05
1.21826e-05
1.21338e-05
1.21826e-05
1.21338e-05
1.21826e-05
1.21338e-05
1.21826e-05
1.21338e-05
1.21826e-05
1.21338e-05
1.21826e-05
1.21338e-05
1.21826e-05
1.21338e-05
1.21826e-05
1.21338e-05
1.21826e-05
1.21338e-05
1.2207e-05
1.21582e-05
1.21826e-05
1.21338e-05
1.2207e-05
1.21338e-05
1.2207e-05
1.21338e-05
1.2207e-05
1.21582e-05
1.2207e-05
1.21338e-05
1.2207e-05
1.21582e-05
1.2207e-05
1.21582e-05
1.2207e-05
1.21582e-05
1.2207e-05
1.21338e-05
1.2207e-05
1.21582e-05
1.2207e-05
1.21582e-05
1.2207e-05
1.21582e-05
1.2207e-05
1.21582e-05
1.2207e-05
1.21582e-05
1.2207e-05
1.21582e-05
1.2207e-05
1.21582e-05
1.2207e-05
1.21582e-05
1.2207e-05
1.21582e-05
1.22314e-05
1.21582e-05
1.2207e-05
1.21582e-05
1.2207e-05
1.21826e-05
1.22314e-05
1.21582e-05
1.21582e-05
1.22559e-05
1.21582e-05
1.22314e-05
1.21582e-05
1.22314e-05
1.21582e-05
1.22314e-05
1.21582e-05
1.22559e-05
1.21582e-05
1.22314e-05
1.21582e-05
1.22314e-05
1.21582e-05
1.22314e-05
1.21582e-05
1.22314e-05
1.21582e-05
1.22314e-05
1.21582e-05
1.22314e-05
1.21582e-05
1.22314e-05
1.21582e-05
1.22314e-05
1.21582e-05
1.22314e-05
1.21582e-05
1.22559e-05
1.21582e-05
1.22314e-05
1.21582e-05
1.22314e-05
1.21582e-05
1.22314e-05
1.21338e-05
1.22314e-05
1.21582e-05
1.22314e-05
1.21338e-05
1.22314e-05
1.21338e-05
1.22314e-05
1.21338e-05
1.22314e-05
1.21338e-05
1.22314e-05
1.21338e-05
1.22314e-05
1.21338e-05
1.22314e-05
1.21582e-05
1.22314e-05
1.21338e-05
1.22314e-05
1.21338e-05
1.22314e-05
1.21582e-05
1.22314e-05
1.21338e-05
1.22314e-05
1.21582e-05
1.22314e-05
1.21338e-05
1.22314e-05
1.21338e-05
1.22314e-05
1.21582e-05
1.22314e-05
1.21582e-05
1.22314e-05
1.21582e-05
1.22559e-05
1.21582e-05
1.22314e-05
1.21582e-05
1.22559e-05
1.21582e-05
1.22559e-05
1.21582e-05
1.22559e-05
1.21826e-05
1.22559e-05
1.21826e-05
1.22803e-05
1.21826e-05
1.22559e-05
1.21826e-05
1.22803e-05
1.21826e-05
1.22803e-05
1.21826e-05
1.23047e-05
1.2207e-05
1.22803e-05
1.2207e-05
1.23047e-05
1.2207e-05
1.23047e-05
1.2207e-05
1.23047e-05
1.22314e-05
1.23047e-05
1.22314e-05
1.23291e-05
1.22559e-05
1.23291e-05
1.22559e-05
1.23535e-05
1.22559e-05
1.23535e-05
1.22803e-05
1.23779e-05
1.22803e-05
1.23779e-05
1.23047e-05
1.23779e-05
1.23047e-05
1.23779e-05
1.23047e-05
1.24023e-05
1.23047e-05
1.24023e-05
1.23291e-05
1.24023e-05
1.23291e-05
1.24023e-05
1.23535e-05
1.24268e-05
1.23535e-05
1.24268e-05
1.23779e-05
1.24512e-05
1.23535e-05
1.24512e-05
1.23779e-05
1.24512e-05
1.23779e-05
1.24756e-05
1.24023e-05
1.24756e-05
1.24023e-05
1.24756e-05
1.24023e-05
1.25e-05
1.24023e-05
1.25e-05
1.24268e-05
1.25e-05
1.24268e-05
1.25244e-05
1.24512e-05
1.25244e-05
1.24512e-05
1.25244e-05
1.24512e-05
1.25488e-05
1.24756e-05
1.25732e-05
1.24756e-05
1.25732e-05
1.24756e-05
1.25732e-05
1.25e-05
1.25732e-05
1.25e-05
1.25977e-05
1.25e-05
1.25977e-05
1.25244e-05
1.25977e-05
1.25244e-05
1.25977e-05
1.25244e-05
1.26221e-05
1.25488e-05
1.26221e-05
1.25488e-05
1.26221e-05
1.25488e-05
1.26465e-05
1.25488e-05
1.26465e-05
1.25488e-05
1.26465e-05
1.25732e-05
1.26709e-05
1.25732e-05
1.26709e-05
1.25732e-05
1.26709e-05
1.25732e-05
1.26709e-05
1.25977e-05
1.26709e-05
1.25732e-05
1.26709e-05
1.25977e-05
1.26953e-05
1.25977e-05
1.26953e-05
1.25977e-05
1.26953e-05
1.26221e-05
1.26953e-05
1.25977e-05
1.27197e-05
1.26221e-05
1.27197e-05
1.26221e-05
1.27197e-05
1.26221e-05
1.27197e-05
1.26221e-05
1.27197e-05
1.26465e-05
1.27197e-05
1.26465e-05
1.27197e-05
1.26465e-05
1.27197e-05
1.26465e-05
1.27441e-05
1.26465e-05
1.27441e-05
1.26465e-05
1.27441e-05
1.26465e-05
1.27441e-05
1.26465e-05
1.27441e-05
1.26465e-05
1.27441e-05
1.26465e-05
1.27441e-05
1.26709e-05
1.27441e-05
1.26465e-05
1.27441e-05
1.26465e-05
1.27441e-05
1.26709e-05
1.27441e-05
1.26709e-05
1.27441e-05
1.26709e-05
1.27441e-05
1.26709e-05
1.27441e-05
1.26709e-05
1.27441e-05
1.26709e-05
1.27686e-05
1.26709e-05
1.27441e-05
1.26709e-05
1.27686e-05
1.26709e-05
1.27441e-05
1.26709e-05
1.27686e-05
1.26709e-05
1.27441e-05
1.26709e-05
1.27686e-05
1.26709e-05
1.27441e-05
1.26709e-05
1.27441e-05
1.26709e-05
1.27441e-05
1.26709e-05
1.27686e-05
1.26709e-05
1.27441e-05
1.26465e-05
1.27441e-05
1.26465e-05
1.27197e-05
1.26465e-05
1.27441e-05
1.26465e-05
1.27197e-05
1.26465e-05
1.27441e-05
1.26465e-05
1.27197e-05
1.26465e-05
1.27197e-05
1.26465e-05
1.27197e-05
1.26465e-05
1.27197e-05
1.26465e-05
1.27197e-05
1.26221e-05
1.27197e-05
1.26221e-05
1.27197e-05
1.26221e-05
1.27197e-05
1.26221e-05
1.26953e-05
1.26221e-05
1.27197e-05
1.26221e-05
1.26953e-05
1.25977e-05
1.26953e-05
1.25977e-05
1.26709e-05
1.25977e-05
1.26953e-05
1.25977e-05
1.26709e-05
1.25977e-05
1.26709e-05
1.25732e-05
1.26709e-05
1.25732e-05
1.26709e-05
1.25732e-05
1.26709e-05
1.25732e-05
1.26709e-05
1.25732e-05
1.26465e-05
1.25732e-05
1.26709e-05
1.25732e-05
1.26465e-05
1.25732e-05
1.26465e-05
1.25732e-05
1.26465e-05
1.25488e-05
1.26465e-05
1.25488e-05
1.26465e-05
1.25488e-05
1.26221e-05
1.25244e-05
1.26221e-05
1.25244e-05
1.26221e-05
1.25244e-05
1.25977e-05
1.25244e-05
1.26221e-05
1.25244e-05
1.25977e-05
1.25244e-05
1.25977e-05
1.25244e-05
1.25977e-05
1.25e-05
1.25977e-05
1.25244e-05
1.25977e-05
1.25e-05
1.25977e-05
1.25e-05
1.25977e-05
1.25e-05
1.25977e-05
1.25e-05
1.25732e-05
1.25e-05
1.25977e-05
1.24756e-05
1.25732e-05
1.25e-05
1.25732e-05
1.25e-05
1.25732e-05
1.25e-05
1.25732e-05
1.25e-05
1.25732e-05
1.25e-05
1.25732e-05
1.25e-05
1.25732e-05
1.25e-05
1.25732e-05
1.25e-05
1.25732e-05
1.25e-05
1.25732e-05
1.25e-05
1.25732e-05
1.25e-05
1.25977e-05
1.25e-05
1.25977e-05
1.25e-05
1.25977e-05
1.25244e-05
1.25977e-05
1.25244e-05
1.25977e-05
1.25244e-05
1.25977e-05
1.25244e-05
1.25977e-05
1.25244e-05
1.26221e-05
1.25244e-05
1.26221e-05
1.25488e-05
1.26221e-05
1.25488e-05
1.26221e-05
1.25488e-05
1.26465e-05
1.25488e-05
1.26465e-05
1.25732e-05
1.26465e-05
1.25732e-05
1.26709e-05
1.25732e-05
1.26465e-05
1.25732e-05
1.26709e-05
1.25732e-05
1.26709e-05
1.25732e-05
1.26709e-05
1.25732e-05
1.26709e-05
1.25977e-05
1.26709e-05
1.25977e-05
1.26953e-05
1.26221e-05
1.26953e-05
1.26221e-05
1.26953e-05
1.26221e-05
1.26953e-05
1.26221e-05
1.27197e-05
1.26465e-05
1.27197e-05
1.26465e-05
1.27197e-05
1.26465e-05
1.27197e-05
1.26465e-05
1.27197e-05
1.26709e-05
1.27441e-05
1.26465e-05
1.27441e-05
1.26709e-05
1.27441e-05
1.26709e-05
1.27441e-05
1.26709e-05
1.27441e-05
1.26709e-05
1.27686e-05
1.26709e-05
1.27686e-05
1.26709e-05
1.27686e-05
1.26953e-05
1.27686e-05
1.26953e-05
1.27686e-05
1.26953e-05
1.27686e-05
1.26953e-05
1.2793e-05
1.26953e-05
1.2793e-05
1.26953e-05
1.2793e-05
1.27197e-05
1.2793e-05
1.27197e-05
1.2793e-05
1.27197e-05
1.2793e-05
1.27197e-05
1.2793e-05
1.27197e-05
1.28174e-05
1.27197e-05
1.2793e-05
1.27441e-05
1.28174e-05
1.27441e-05
1.28174e-05
1.27441e-05
1.28174e-05
1.27441e-05
1.28174e-05
1.27441e-05
1.28174e-05
1.27441e-05
1.28174e-05
1.27441e-05
1.28174e-05
1.27441e-05
1.28174e-05
1.27441e-05
1.28418e-05
1.27441e-05
1.28418e-05
1.27686e-05
1.28418e-05
1.27441e-05
1.28418e-05
1.27686e-05
1.28418e-05
1.27686e-05
1.28174e-05
1.27686e-05
1.28418e-05
1.27686e-05
1.28418e-05
1.27686e-05
1.28418e-05
1.27686e-05
1.28418e-05
1.27686e-05
1.28418e-05
1.27686e-05
1.28174e-05
1.27686e-05
1.28418e-05
1.27686e-05
1.28418e-05
1.27686e-05
1.28418e-05
1.27441e-05
1.28418e-05
1.27686e-05
1.28418e-05
1.27686e-05
1.28174e-05
1.27686e-05
1.28418e-05
1.27441e-05
1.28418e-05
1.27686e-05
1.28174e-05
1.27686e-05
1.28174e-05
1.27686e-05
1.28174e-05
1.27441e-05
1.28174e-05
1.27441e-05
1.28174e-05
1.27441e-05
1.28174e-05
1.27441e-05
1.28174e-05
1.27441e-05
1.28174e-05
1.27686e-05
1.28174e-05
1.27441e-05
1.28174e-05
1.27441e-05
1.28174e-05
1.27441e-05
1.28174e-05
1.27441e-05
1.28174e-05
1.27441e-05
1.28174e-05
1.27441e-05
1.28174e-05
1.27197e-05
1.28174e-05
1.27197e-05
1.2793e-05
1.27197e-05
1.2793e-05
1.27441e-05
1.2793e-05
1.27197e-05
1.2793e-05
1.27197e-05
1.2793e-05
1.26953e-05
1.2793e-05
1.27197e-05
1.2793e-05
1.27197e-05
1.2793e-05
1.27197e-05
1.2793e-05
1.26953e-05
1.27686e-05
1.26953e-05
1.27686e-05
1.26953e-05
1.27686e-05
1.26953e-05
1.27686e-05
1.26709e-05
1.27686e-05
1.26709e-05
1.27441e-05
1.26709e-05
1.27441e-05
1.26953e-05
1.27441e-05
1.26709e-05
1.27441e-05
1.26709e-05
1.27441e-05
1.26709e-05
1.27197e-05
1.26709e-05
1.27197e-05
1.26709e-05
1.27197e-05
1.26709e-05
1.27197e-05
1.26709e-05
1.27197e-05
1.26709e-05
1.27197e-05
1.26709e-05
1.27197e-05
1.26465e-05
1.27197e-05
1.26709e-05
1.27197e-05
1.26465e-05
1.27197e-05
1.26709e-05
1.27197e-05
1.26465e-05
1.27197e-05
1.26465e-05
1.27197e-05
1.26465e-05
1.27197e-05
1.26465e-05
1.27197e-05
1.26465e-05
1.27197e-05
1.26465e-05
1.27197e-05
1.26465e-05
1.27197e-05
1.26465e-05
1.27197e-05
1.26709e-05
1.27197e-05
1.26709e-05
1.27197e-05
1.26709e-05
1.27197e-05
1.26709e-05
1.27197e-05
1.26709e-05
1.27441e-05
1.26709e-05
1.27441e-05
1.26709e-05
1.27686e-05
1.26709e-05
1.27441e-05
1.26709e-05
1.27686e-05
1.26709e-05
1.27686e-05
1.26709e-05
1.27686e-05
1.26953e-05
1.27686e-05
1.26953e-05
1.27686e-05
1.26953e-05
1.27686e-05
1.27197e-05
1.2793e-05
1.27197e-05
1.2793e-05
1.27197e-05
1.2793e-05
1.27197e-05
1.2793e-05
1.27197e-05
1.2793e-05
1.27441e-05
1.2793e-05
1.27441e-05
1.28174e-05
1.27441e-05
1.28174e-05
1.27441e-05
1.28174e-05
1.27686e-05
1.28174e-05
1.27686e-05
1.28418e-05
1.27686e-05
1.28174e-05
1.27686e-05
1.28418e-05
1.27686e-05
1.28418e-05
1.27686e-05
1.28418e-05
1.2793e-05
1.28418e-05
1.2793e-05
1.28662e-05
1.2793e-05
1.28662e-05
1.2793e-05
1.28662e-05
1.2793e-05
1.28662e-05
1.2793e-05
1.28662e-05
1.2793e-05
1.28662e-05
1.28174e-05
1.28662e-05
1.28174e-05
1.28662e-05
1.28174e-05
1.28906e-05
1.28174e-05
1.28662e-05
1.28174e-05
1.28906e-05
1.28174e-05
1.28906e-05
1.28174e-05
1.28906e-05
1.28418e-05
1.28906e-05
1.28418e-05
1.2915e-05
1.28418e-05
1.28906e-05
1.28418e-05
1.2915e-05
1.28418e-05
1.28906e-05
1.28418e-05
1.2915e-05
1.28418e-05
1.28906e-05
1.28418e-05
1.2915e-05
1.28418e-05
1.2915e-05
1.28418e-05
1.2915e-05
1.28418e-05
1.2915e-05
1.28662e-05
1.2915e-05
1.28662e-05
1.2915e-05
1.28662e-05
1.2915e-05
1.28662e-05
1.2915e-05
1.28662e-05
1.2915e-05
1.28418e-05
1.2915e-05
1.28662e-05
1.2915e-05
1.28662e-05
1.2915e-05
1.28662e-05
1.2915e-05
1.28662e-05
1.2915e-05
1.28662e-05
1.2915e-05
1.28662e-05
1.2915e-05
1.28662e-05
1.2915e-05
1.28662e-05
1.2915e-05
1.28662e-05
1.2915e-05
1.28662e-05
1.2915e-05
1.28662e-05
1.2915e-05
1.28662e-05
1.2915e-05
1.28662e-05
1.2915e-05
1.28418e-05
1.28906e-05
1.28418e-05
1.2915e-05
1.28418e-05
1.28906e-05
1.28662e-05
1.2915e-05
1.28418e-05
1.2915e-05
1.28418e-05
1.2915e-05
1.28418e-05
1.28906e-05
1.28418e-05
1.28906e-05
1.28418e-05
1.28906e-05
1.28418e-05
1.2915e-05
1.28418e-05
1.28906e-05
1.28418e-05
1.28906e-05
1.28418e-05
1.28906e-05
1.28418e-05
1.28906e-05
1.28174e-05
1.28906e-05
1.28418e-05
1.28906e-05
1.28174e-05
1.28906e-05
1.28418e-05
1.28662e-05
1.28174e-05
1.28662e-05
1.28174e-05
1.28662e-05
1.28174e-05
1.28662e-05
1.28174e-05
1.28662e-05
1.28174e-05
1.28662e-05
1.28174e-05
1.28662e-05
1.2793e-05
1.28662e-05
1.28174e-05
1.28662e-05
1.2793e-05
1.28662e-05
1.2793e-05
1.28418e-05
1.2793e-05
1.28418e-05
1.2793e-05
1.28662e-05
1.2793e-05
1.28418e-05
1.2793e-05
1.28418e-05
1.2793e-05
1.28418e-05
1.2793e-05
1.28418e-05
1.27686e-05
1.28418e-05
1.2793e-05
1.28418e-05
1.27686e-05
1.28174e-05
1.2793e-05
1.28418e-05
1.27686e-05
1.28174e-05
1.27686e-05
1.28418e-05
1.27686e-05
1.28174e-05
1.27686e-05
1.28174e-05
1.27686e-05
1.28174e-05
1.27686e-05
1.28174e-05
1.27441e-05
1.2793e-05
1.27686e-05
1.2793e-05
1.27441e-05
1.2793e-05
1.27441e-05
1.2793e-05
1.27441e-05
1.2793e-05
1.27441e-05
1.2793e-05
1.27441e-05
1.2793e-05
1.27197e-05
1.2793e-05
1.27197e-05
1.2793e-05
1.27441e-05
1.2793e-05
1.27197e-05
1.27686e-05
1.27197e-05
1.2793e-05
1.27197e-05
1.27686e-05
1.27197e-05
1.27686e-05
1.27197e-05
1.27686e-05
1.27197e-05
1.27686e-05
1.27197e-05
1.27686e-05
1.26953e-05
1.27686e-05
1.26953e-05
1.27441e-05
1.26953e-05
1.27686e-05
1.26953e-05
1.27441e-05
1.26953e-05
1.27686e-05
1.26953e-05
1.27441e-05
1.26953e-05
1.27441e-05
1.26953e-05
1.27441e-05
1.26709e-05
1.27441e-05
1.26709e-05
1.27197e-05
1.26709e-05
1.27197e-05
1.26709e-05
1.27197e-05
1.26709e-05
1.27197e-05
1.26709e-05
1.27197e-05
1.26709e-05
1.27197e-05
1.26709e-05
1.27197e-05
1.26709e-05
1.27197e-05
1.26709e-05
1.27197e-05
1.26465e-05
1.26953e-05
1.26465e-05
1.26953e-05
1.26709e-05
1.26953e-05
1.26465e-05
1.26953e-05
1.26465e-05
1.26953e-05
1.26465e-05
1.26953e-05
1.26465e-05
1.26953e-05
1.26465e-05
1.26709e-05
1.26465e-05
1.26709e-05
1.26221e-05
1.26709e-05
1.26221e-05
1.26709e-05
1.26221e-05
1.26709e-05
1.26221e-05
1.26709e-05
1.26221e-05
1.26709e-05
1.26221e-05
1.26709e-05
1.26221e-05
1.26709e-05
1.26221e-05
1.26709e-05
1.26221e-05
1.26709e-05
1.26221e-05
1.26709e-05
1.26221e-05
1.26709e-05
1.26221e-05
1.26709e-05
1.26221e-05
1.26709e-05
1.26221e-05
1.26465e-05
1.25977e-05
1.26709e-05
1.26221e-05
1.26709e-05
1.25977e-05
1.26465e-05
1.25977e-05
1.26465e-05
1.25977e-05
1.26465e-05
1.25977e-05
1.26465e-05
1.25977e-05
1.26465e-05
1.25977e-05
1.26709e-05
1.25977e-05
1.26465e-05
1.25977e-05
1.26465e-05
1.25977e-05
1.26465e-05
1.25977e-05
1.26465e-05
1.25977e-05
1.26465e-05
1.25977e-05
1.26465e-05
1.25732e-05
1.26465e-05
1.25977e-05
1.26465e-05
1.25732e-05
1.26465e-05
1.25732e-05
1.26465e-05
1.25732e-05
1.26465e-05
1.25732e-05
1.26465e-05
1.25732e-05
1.26465e-05
1.25977e-05
1.26465e-05
1.25732e-05
1.26465e-05
1.25977e-05
1.26465e-05
1.25977e-05
1.26465e-05
1.25977e-05
1.26465e-05
1.25977e-05
1.26465e-05
1.25977e-05
1.26465e-05
1.25977e-05
1.26465e-05
1.25977e-05
1.26465e-05
1.25977e-05
1.26465e-05
1.25977e-05
1.26465e-05
1.25977e-05
1.26465e-05
1.25977e-05
1.26465e-05
1.25977e-05
1.26465e-05
1.25977e-05
1.26465e-05
1.25977e-05
1.26465e-05
1.25977e-05
1.26465e-05
1.25977e-05
1.26709e-05
1.25977e-05
1.26465e-05
1.25977e-05
1.26709e-05
1.25977e-05
1.26709e-05
1.25977e-05
1.26709e-05
1.26221e-05
1.26709e-05
1.26221e-05
1.26709e-05
1.26221e-05
1.26709e-05
1.25977e-05
1.26709e-05
1.26221e-05
1.26709e-05
1.26221e-05
1.26709e-05
1.26221e-05
1.26709e-05
1.26221e-05
1.26709e-05
1.26221e-05
1.26709e-05
1.26465e-05
1.26709e-05
1.26465e-05
1.26709e-05
1.26465e-05
1.26709e-05
1.26465e-05
1.26709e-05
1.26465e-05
1.26709e-05
1.26465e-05
1.26953e-05
1.26465e-05
1.26953e-05
1.26709e-05
1.26953e-05
1.26709e-05
1.26953e-05
1.26709e-05
1.27197e-05
1.26709e-05
1.27197e-05
1.26709e-05
1.27197e-05
1.26709e-05
1.27197e-05
1.26709e-05
1.27197e-05
1.26953e-05
1.27197e-05
1.26953e-05
1.27441e-05
1.26953e-05
1.27441e-05
1.27197e-05
1.27686e-05
1.26953e-05
1.27686e-05
1.27197e-05
1.27686e-05
1.27197e-05
1.27686e-05
1.27197e-05
1.2793e-05
1.27441e-05
1.2793e-05
1.27686e-05
1.2793e-05
1.27441e-05
1.2793e-05
1.27686e-05
1.2793e-05
1.27686e-05
1.28174e-05
1.2793e-05
1.28174e-05
1.2793e-05
1.28174e-05
1.2793e-05
1.28418e-05
1.2793e-05
1.28418e-05
1.2793e-05
1.28418e-05
1.2793e-05
1.28418e-05
1.28174e-05
1.28662e-05
1.28174e-05
1.28662e-05
1.28418e-05
1.28662e-05
1.28418e-05
1.28662e-05
1.28418e-05
1.28662e-05
1.28418e-05
1.28662e-05
1.28662e-05
1.28906e-05
1.28662e-05
1.28906e-05
1.28662e-05
1.28906e-05
1.28662e-05
1.2915e-05
1.28662e-05
1.2915e-05
1.28662e-05
1.2915e-05
1.28906e-05
1.2915e-05
1.28906e-05
1.2915e-05
1.28906e-05
1.29395e-05
1.28906e-05
1.29395e-05
1.28906e-05
1.29395e-05
1.28906e-05
1.29395e-05
1.2915e-05
1.29639e-05
1.2915e-05
1.29639e-05
1.2915e-05
1.29639e-05
1.2915e-05
1.29639e-05
1.29395e-05
1.29639e-05
1.2915e-05
1.29639e-05
1.29395e-05
1.29639e-05
1.29395e-05
1.29639e-05
1.29395e-05
1.29639e-05
1.29395e-05
1.29883e-05
1.29639e-05
1.29883e-05
1.29639e-05
1.29883e-05
1.29639e-05
1.29883e-05
1.29639e-05
1.29883e-05
1.29639e-05
1.29883e-05
1.29639e-05
1.29883e-05
1.29639e-05
1.30127e-05
1.29639e-05
1.30127e-05
1.29639e-05
1.30127e-05
1.29639e-05
1.30127e-05
1.29883e-05
1.30127e-05
1.29639e-05
1.30127e-05
1.29883e-05
1.30127e-05
1.29639e-05
1.30127e-05
1.29883e-05
1.30127e-05
1.29883e-05
1.30371e-05
1.29883e-05
1.30371e-05
1.29639e-05
1.30127e-05
1.29883e-05
1.30127e-05
1.29883e-05
1.30371e-05
1.29883e-05
1.30371e-05
1.29883e-05
1.30127e-05
1.29883e-05
1.30371e-05
1.29883e-05
1.30371e-05
1.29883e-05
1.30371e-05
1.29883e-05
1.30371e-05
1.29883e-05
1.30371e-05
1.29883e-05
1.30127e-05
1.30127e-05
1.30127e-05
1.29883e-05
1.30127e-05
1.29883e-05
1.30371e-05
1.29883e-05
1.30371e-05
1.29883e-05
1.30127e-05
1.29883e-05
1.30371e-05
1.29883e-05
1.30127e-05
1.29883e-05
1.30127e-05
1.29883e-05
1.30127e-05
1.29883e-05
1.30127e-05
1.29883e-05
1.30127e-05
1.29883e-05
1.30127e-05
1.29639e-05
1.30127e-05
1.29639e-05
1.30127e-05
1.29883e-05
1.30127e-05
1.29639e-05
1.29883e-05
1.29639e-05
1.30127e-05
1.29639e-05
1.29883e-05
1.29639e-05
1.29883e-05
1.29639e-05
1.29883e-05
1.29639e-05
1.29883e-05
1.29639e-05
1.29883e-05
1.29639e-05
1.29883e-05
1.29639e-05
1.29639e-05
1.29639e-05
1.29883e-05
1.29395e-05
1.29883e-05
1.29639e-05
1.29883e-05
1.29395e-05
1.29883e-05
1.29639e-05
1.29639e-05
1.29395e-05
1.29639e-05
1.29395e-05
1.29639e-05
1.29395e-05
1.29639e-05
1.29639e-05
1.29639e-05
1.29395e-05
1.29639e-05
1.29395e-05
1.29639e-05
1.29395e-05
1.29639e-05
1.29395e-05
1.29639e-05
1.29395e-05
1.29639e-05
1.29639e-05
1.29639e-05
1.29639e-05
1.29639e-05
1.29639e-05
1.29883e-05
1.29639e-05
1.29883e-05
1.29639e-05
1.29883e-05
1.29639e-05
1.29883e-05
1.29639e-05
1.30127e-05
1.29639e-05
1.29883e-05
1.29883e-05
1.30127e-05
1.29883e-05
1.30127e-05
1.29883e-05
1.30371e-05
1.29883e-05
1.30371e-05
1.30127e-05
1.30371e-05
1.30127e-05
1.30371e-05
1.30371e-05
1.30615e-05
1.30371e-05
1.30615e-05
1.30371e-05
1.30859e-05
1.30615e-05
1.30859e-05
1.30615e-05
1.30859e-05
1.30615e-05
1.30859e-05
1.30859e-05
1.31104e-05
1.30859e-05
1.31104e-05
1.31104e-05
1.31348e-05
1.31104e-05
1.31348e-05
1.31104e-05
1.31592e-05
1.31104e-05
1.31592e-05
1.31348e-05
1.31592e-05
1.31592e-05
1.31836e-05
1.31592e-05
1.31836e-05
1.31592e-05
1.31836e-05
1.31836e-05
1.3208e-05
1.31836e-05
1.3208e-05
1.3208e-05
1.32324e-05
1.3208e-05
1.32324e-05
1.3208e-05
1.32324e-05
1.3208e-05
1.32568e-05
1.32324e-05
1.32568e-05
1.32324e-05
1.32568e-05
1.32568e-05
1.32568e-05
1.32568e-05
1.32812e-05
1.32568e-05
1.32812e-05
1.32568e-05
1.33057e-05
1.32812e-05
1.33057e-05
1.32568e-05
1.33057e-05
1.32812e-05
1.33057e-05
1.32812e-05
1.33057e-05
1.33057e-05
1.33301e-05
1.33057e-05
1.33301e-05
1.33057e-05
1.33301e-05
1.33057e-05
1.33545e-05
1.33301e-05
1.33545e-05
1.33301e-05
1.33545e-05
1.33301e-05
1.33545e-05
1.33545e-05
1.33789e-05
1.33545e-05
1.33789e-05
1.33545e-05
1.33789e-05
1.33545e-05
1.33789e-05
1.33545e-05
1.33789e-05
1.33545e-05
1.33789e-05
1.33545e-05
1.34033e-05
1.33545e-05
1.33789e-05
1.33789e-05
1.34033e-05
1.33789e-05
1.34033e-05
1.33545e-05
1.34033e-05
1.33789e-05
1.34033e-05
1.33789e-05
1.34033e-05
1.33789e-05
1.34033e-05
1.33789e-05
1.34033e-05
1.33789e-05
1.34033e-05
1.33789e-05
1.34277e-05
1.33789e-05
1.34277e-05
1.33789e-05
1.34277e-05
1.33789e-05
1.34033e-05
1.33789e-05
1.34277e-05
1.33789e-05
1.34033e-05
1.33789e-05
1.34277e-05
1.33789e-05
1.34277e-05
1.34033e-05
1.34277e-05
1.34033e-05
1.34277e-05
1.33789e-05
1.34277e-05
1.34033e-05
1.34277e-05
1.34033e-05
1.34277e-05
1.34033e-05
1.34277e-05
1.34033e-05
1.34033e-05
1.34033e-05
1.34277e-05
1.33789e-05
1.34033e-05
1.34033e-05
1.34277e-05
1.33789e-05
1.34033e-05
1.34033e-05
1.34277e-05
1.34033e-05
1.34277e-05
1.34033e-05
1.34277e-05
1.34033e-05
1.34277e-05
1.34033e-05
1.34277e-05
1.34033e-05
1.34277e-05
1.34033e-05
1.34277e-05
1.34033e-05
1.34277e-05
1.34033e-05
1.34277e-05
1.34033e-05
1.34277e-05
1.34033e-05
1.34277e-05
1.34033e-05
1.34277e-05
1.34033e-05
1.34277e-05
1.34033e-05
1.34033e-05
1.34033e-05
1.34277e-05
1.33789e-05
1.34277e-05
1.34033e-05
1.34277e-05
1.34033e-05
1.34033e-05
1.34033e-05
1.34277e-05
1.34033e-05
1.34033e-05
1.33789e-05
1.34277e-05
1.33789e-05
1.34033e-05
1.33789e-05
1.34033e-05
1.33789e-05
1.34033e-05
1.33789e-05
1.34033e-05
1.33789e-05
1.34033e-05
1.33789e-05
1.34033e-05
1.33789e-05
1.34033e-05
1.33789e-05
1.33789e-05
1.33545e-05
1.33789e-05
1.33545e-05
1.33789e-05
1.33545e-05
1.33789e-05
1.33545e-05
1.33789e-05
1.33545e-05
1.33545e-05
1.33545e-05
1.33545e-05
1.33545e-05
1.33545e-05
1.33545e-05
1.33545e-05
1.33301e-05
1.33545e-05
1.33301e-05
1.33545e-05
1.33301e-05
1.33301e-05
1.33057e-05
1.33301e-05
1.33057e-05
1.33301e-05
1.33057e-05
1.33057e-05
1.32812e-05
1.33057e-05
1.33057e-05
1.33057e-05
1.32812e-05
1.33057e-05
1.32812e-05
1.32812e-05
1.32812e-05
1.32812e-05
1.32568e-05
1.32812e-05
1.32568e-05
1.32812e-05
1.32568e-05
1.32568e-05
1.32568e-05
1.32568e-05
1.32568e-05
1.32568e-05
1.32324e-05
1.32568e-05
1.32324e-05
1.32568e-05
1.32324e-05
1.32324e-05
1.32324e-05
1.32324e-05
1.3208e-05
1.32324e-05
1.3208e-05
1.32324e-05
1.31836e-05
1.3208e-05
1.31836e-05
1.3208e-05
1.31836e-05
1.3208e-05
1.31836e-05
1.31836e-05
1.31836e-05
1.31836e-05
1.31836e-05
1.31836e-05
1.31836e-05
1.31836e-05
1.31592e-05
1.31836e-05
1.31592e-05
1.31836e-05
1.31592e-05
1.31836e-05
1.31592e-05
1.31592e-05
1.31592e-05
1.31592e-05
1.31348e-05
1.31592e-05
1.31348e-05
1.31592e-05
1.31348e-05
1.31348e-05
1.31104e-05
1.31348e-05
1.31104e-05
1.31348e-05
1.31104e-05
1.31348e-05
1.31104e-05
1.31348e-05
1.31104e-05
1.31104e-05
1.31104e-05
1.31104e-05
1.31104e-05
1.31104e-05
1.30859e-05
1.31104e-05
1.30859e-05
1.31104e-05
1.30859e-05
1.31104e-05
1.30859e-05
1.31104e-05
1.30859e-05
1.31104e-05
1.30859e-05
1.30859e-05
1.30859e-05
1.30859e-05
1.30859e-05
1.30859e-05
1.30615e-05
1.30859e-05
1.30859e-05
1.30859e-05
1.30615e-05
1.30859e-05
1.30615e-05
1.30859e-05
1.30615e-05
1.30615e-05
1.30615e-05
1.30615e-05
1.30371e-05
1.30615e-05
1.30615e-05
1.30615e-05
1.30371e-05
1.30615e-05
1.30371e-05
1.30615e-05
1.30371e-05
1.30615e-05
1.30371e-05
1.30371e-05
1.30371e-05
1.30371e-05
1.30371e-05
1.30371e-05
1.30371e-05
1.30371e-05
1.30371e-05
1.30371e-05
1.30371e-05
1.30371e-05
1.30371e-05
1.30371e-05
1.30127e-05
1.30371e-05
1.30127e-05
1.30371e-05
1.30127e-05
1.30371e-05
1.30127e-05
1.30127e-05
1.30127e-05
1.30127e-05
1.29883e-05
1.30371e-05
1.30127e-05
1.30127e-05
1.29883e-05
1.30127e-05
1.29883e-05
1.30127e-05
1.29883e-05
1.30127e-05
1.29883e-05
1.30127e-05
1.29883e-05
1.30127e-05
1.29883e-05
1.29883e-05
1.29883e-05
1.29883e-05
1.29883e-05
1.29883e-05
1.29883e-05
1.29883e-05
1.29639e-05
1.29883e-05
1.29639e-05
1.29883e-05
1.29639e-05
1.29883e-05
1.29639e-05
1.29883e-05
1.29639e-05
1.29883e-05
1.29639e-05
1.29883e-05
1.29639e-05
1.29883e-05
1.29639e-05
1.29883e-05
1.29639e-05
1.29883e-05
1.29639e-05
1.29883e-05
1.29639e-05
1.29883e-05
1.29639e-05
1.29883e-05
1.29639e-05
1.29639e-05
1.29639e-05
1.29639e-05
1.29639e-05
1.29639e-05
1.29639e-05
1.29639e-05
1.29639e-05
1.29639e-05
1.29639e-05
1.29639e-05
1.29639e-05
1.29639e-05
1.29639e-05
1.29639e-05
1.29639e-05
1.29639e-05
1.29639e-05
1.29639e-05
1.29395e-05
1.29639e-05
1.29395e-05
1.29639e-05
1.29395e-05
1.29639e-05
1.29395e-05
1.29639e-05
1.29395e-05
1.29639e-05
1.29395e-05
1.29639e-05
1.29395e-05
1.29395e-05
1.29395e-05
1.29395e-05
1.29395e-05
1.29395e-05
1.29395e-05
1.29395e-05
1.29395e-05
1.29395e-05
1.2915e-05
1.29395e-05
1.2915e-05
1.29395e-05
1.2915e-05
1.29395e-05
1.2915e-05
1.29395e-05
1.2915e-05
1.29395e-05
1.2915e-05
1.29395e-05
1.2915e-05
1.2915e-05
1.2915e-05
1.2915e-05
1.2915e-05
1.2915e-05
1.2915e-05
1.2915e-05
1.28906e-05
1.2915e-05
1.2915e-05
1.2915e-05
1.28906e-05
1.2915e-05
1.28906e-05
1.2915e-05
1.28906e-05
1.28906e-05
1.28906e-05
1.2915e-05
1.28906e-05
1.2915e-05
1.28906e-05
1.28906e-05
1.28906e-05
1.28906e-05
1.28662e-05
1.28906e-05
1.28906e-05
1.28906e-05
1.28906e-05
1.28906e-05
1.28662e-05
1.28906e-05
1.28662e-05
1.28906e-05
1.28662e-05
1.28906e-05
1.28662e-05
1.28906e-05
1.28662e-05
1.28906e-05
1.28662e-05
1.28906e-05
1.28662e-05
1.28662e-05
1.28662e-05
1.28906e-05
1.28662e-05
1.28662e-05
1.28662e-05
1.28662e-05
1.28662e-05
1.28662e-05
1.28418e-05
1.28662e-05
1.28418e-05
1.28662e-05
1.28418e-05
1.28662e-05
1.28418e-05
1.28662e-05
1.28418e-05
1.28418e-05
1.28418e-05
1.28662e-05
1.28418e-05
1.28418e-05
1.28418e-05
1.28418e-05
1.28174e-05
1.28418e-05
1.28174e-05
1.28418e-05
1.28174e-05
1.28418e-05
1.28174e-05
1.28418e-05
1.28174e-05
1.28418e-05
1.28174e-05
1.28174e-05
1.28174e-05
1.28174e-05
1.2793e-05
1.28174e-05
1.2793e-05
1.28174e-05
1.2793e-05
1.28174e-05
1.2793e-05
1.28174e-05
1.2793e-05
1.2793e-05
1.2793e-05
1.2793e-05
1.2793e-05
1.2793e-05
1.27686e-05
1.2793e-05
1.2793e-05
1.2793e-05
1.27686e-05
1.2793e-05
1.27686e-05
1.2793e-05
1.27686e-05
1.2793e-05
1.27686e-05
1.2793e-05
1.27686e-05
1.27686e-05
1.27686e-05
1.27686e-05
1.27686e-05
1.27686e-05
1.27686e-05
1.27686e-05
1.27441e-05
1.27686e-05
1.27441e-05
1.27686e-05
1.27441e-05
1.27686e-05
1.27441e-05
1.27686e-05
1.27441e-05
1.27686e-05
1.27197e-05
1.27686e-05
1.27197e-05
1.27441e-05
1.27441e-05
1.27441e-05
1.27197e-05
1.27197e-05
1.27197e-05
1.27441e-05
1.27197e-05
1.27197e-05
1.27197e-05
1.27197e-05
1.27197e-05
1.27197e-05
1.27197e-05
1.27197e-05
1.27197e-05
1.27197e-05
1.26953e-05
1.27197e-05
1.26953e-05
1.27197e-05
1.26953e-05
1.27197e-05
1.26953e-05
1.26953e-05
1.26953e-05
1.26953e-05
1.26709e-05
1.26953e-05
1.26953e-05
1.26953e-05
1.26709e-05
1.26953e-05
1.26709e-05
1.26953e-05
1.26709e-05
1.26709e-05
1.26709e-05
1.26709e-05
1.26709e-05
1.26709e-05
1.26709e-05
1.26709e-05
1.26709e-05
1.26709e-05
1.26709e-05
1.26709e-05
1.26709e-05
1.26709e-05
1.26709e-05
1.26709e-05
1.26709e-05
1.26709e-05
1.26465e-05
1.26709e-05
1.26465e-05
1.26465e-05
1.26465e-05
1.26709e-05
1.26465e-05
1.26709e-05
1.26465e-05
1.26465e-05
1.26465e-05
1.26465e-05
1.26465e-05
1.26465e-05
1.26221e-05
1.26465e-05
1.26221e-05
1.26465e-05
1.26221e-05
1.26465e-05
1.26221e-05
1.26465e-05
1.26221e-05
1.26465e-05
1.26221e-05
1.26465e-05
1.25977e-05
1.26465e-05
1.25977e-05
1.26221e-05
1.25977e-05
1.26221e-05
1.25977e-05
1.26221e-05
1.25977e-05
1.26221e-05
1.25977e-05
1.26221e-05
1.25977e-05
1.26221e-05
1.25977e-05
1.26221e-05
1.25977e-05
1.25977e-05
1.25977e-05
1.25977e-05
1.25977e-05
1.25977e-05
1.25977e-05
1.25977e-05
1.25977e-05
1.25977e-05
1.25977e-05
1.25977e-05
1.25977e-05
1.25977e-05
1.25732e-05
1.25977e-05
1.25732e-05
1.25977e-05
1.25732e-05
1.25977e-05
1.25732e-05
1.25977e-05
1.25732e-05
1.25977e-05
1.25732e-05
1.25977e-05
1.25732e-05
1.25977e-05
1.25732e-05
1.25977e-05
1.25732e-05
1.25732e-05
1.25732e-05
1.25732e-05
1.25732e-05
1.25732e-05
1.25732e-05
1.25732e-05
1.25732e-05
1.25977e-05
1.25732e-05
1.25732e-05
1.25732e-05
1.25732e-05
1.25732e-05
1.25732e-05
1.25732e-05
1.25732e-05
1.25732e-05
1.25732e-05
1.25732e-05
1.25732e-05
1.25732e-05
1.25732e-05
1.25732e-05
1.25732e-05
1.25732e-05
1.25732e-05
1.25732e-05
1.25732e-05
1.25488e-05
1.25732e-05
1.25488e-05
1.25732e-05
1.25732e-05
1.25732e-05
1.25732e-05
1.25732e-05
1.25488e-05
1.25732e-05
1.25732e-05
1.25732e-05
1.25488e-05
1.25732e-05
1.25732e-05
1.25732e-05
1.25488e-05
1.25732e-05
1.25488e-05
1.25732e-05
1.25732e-05
1.25732e-05
1.25732e-05
1.25732e-05
1.25488e-05
1.25732e-05
1.25732e-05
1.25732e-05
1.25732e-05
1.25732e-05
1.25732e-05
1.25732e-05
1.25732e-05
1.25732e-05
1.25732e-05
1.25977e-05
1.25488e-05
1.25732e-05
1.25732e-05
1.25732e-05
1.25488e-05
1.25732e-05
1.25732e-05
1.25732e-05
1.25732e-05
1.25732e-05
1.25488e-05
1.25732e-05
1.25732e-05
1.25732e-05
1.25732e-05
1.25732e-05
1.25732e-05
1.25977e-05
1.25732e-05
1.25732e-05
1.25732e-05
1.25732e-05
1.25732e-05
1.25732e-05
1.25732e-05
1.25732e-05
1.25732e-05
1.25732e-05
1.25732e-05
1.25977e-05
1.25732e-05
1.25977e-05
1.25732e-05
1.25977e-05
1.25732e-05
1.25977e-05
1.25732e-05
1.25977e-05
1.25732e-05
1.25977e-05
1.25732e-05
1.25732e-05
1.25732e-05
1.25732e-05
1.25732e-05
1.25977e-05
1.25732e-05
1.25977e-05
1.25732e-05
1.25977e-05
1.25977e-05
1.25488e-05
1.25488e-05
1.25732e-05
1.25488e-05
1.25977e-05
1.25732e-05
1.25977e-05
1.25732e-05
1.25977e-05
1.25732e-05
1.25977e-05
1.25732e-05
1.25977e-05
1.25732e-05
1.25977e-05
1.25732e-05
1.25977e-05
1.25732e-05
1.25977e-05
1.25732e-05
1.25977e-05
1.25732e-05
1.25977e-05
1.25732e-05
1.25977e-05
1.25732e-05
1.25977e-05
1.25732e-05
1.25977e-05
1.25732e-05
1.25977e-05
1.25732e-05
1.25977e-05
1.25732e-05
1.25977e-05
1.25732e-05
1.25977e-05
1.25732e-05
1.25977e-05
1.25732e-05
1.25977e-05
1.25732e-05
1.25977e-05
1.25732e-05
1.25977e-05
1.25732e-05
1.25977e-05
1.25732e-05
1.25977e-05
1.25732e-05
1.25977e-05
1.25732e-05
1.25977e-05
1.25732e-05
1.25977e-05
1.25732e-05
1.25977e-05
1.25732e-05
1.25977e-05
1.25488e-05
1.25977e-05
1.25732e-05
1.25732e-05
1.25732e-05
1.25977e-05
1.25732e-05
1.25977e-05
1.25732e-05
1.25732e-05
1.25488e-05
1.25977e-05
1.25488e-05
1.25977e-05
1.25488e-05
1.25732e-05
1.25488e-05
1.25977e-05
1.25488e-05
1.25732e-05
1.25488e-05
1.25977e-05
1.25488e-05
1.25732e-05
1.25488e-05
1.25732e-05
1.25488e-05
1.25732e-05
1.25488e-05
1.25732e-05
1.25488e-05
1.25732e-05
1.25488e-05
1.25732e-05
1.25488e-05
1.25732e-05
1.25488e-05
1.25732e-05
1.25488e-05
1.25732e-05
1.25244e-05
1.25732e-05
1.25488e-05
1.25732e-05
1.25488e-05
1.25732e-05
1.25244e-05
1.25732e-05
1.25244e-05
1.25732e-05
1.25244e-05
1.25732e-05
1.25244e-05
1.25732e-05
1.25244e-05
1.25732e-05
1.25244e-05
1.25732e-05
1.25244e-05
1.25732e-05
1.25244e-05
1.25732e-05
1.25244e-05
1.25732e-05
1.25244e-05
1.25732e-05
1.25244e-05
1.25488e-05
1.25244e-05
1.25488e-05
1.25244e-05
1.25488e-05
1.25244e-05
1.25488e-05
1.25244e-05
1.25488e-05
1.25244e-05
1.25488e-05
1.25e-05
1.25488e-05
1.25e-05
1.25488e-05
1.25e-05
1.25488e-05
1.25e-05
1.25488e-05
1.25e-05
1.25488e-05
1.25e-05
1.25488e-05
1.25e-05
1.25488e-05
1.25e-05
1.25488e-05
1.25e-05
1.25488e-05
1.25e-05
1.25488e-05
1.25e-05
1.25488e-05
1.25e-05
1.25244e-05
1.25e-05
1.25488e-05
1.25e-05
1.25488e-05
1.25e-05
1.25488e-05
1.25e-05
1.25488e-05
1.25e-05
1.25488e-05
1.25e-05
1.25488e-05
1.25e-05
1.25488e-05
1.25e-05
1.25488e-05
1.25e-05
1.25488e-05
1.25e-05
1.25488e-05
1.25e-05
1.25488e-05
1.25244e-05
1.25488e-05
1.25244e-05
1.25732e-05
1.25244e-05
1.25732e-05
1.25244e-05
1.25732e-05
1.25244e-05
1.25732e-05
1.25244e-05
1.25732e-05
1.25244e-05
1.25732e-05
1.25244e-05
1.25732e-05
1.25488e-05
1.25732e-05
1.25488e-05
1.25977e-05
1.25488e-05
1.25977e-05
1.25488e-05
1.25977e-05
1.25732e-05
1.25977e-05
1.25732e-05
1.25977e-05
1.25732e-05
1.26221e-05
1.25732e-05
1.26221e-05
1.25732e-05
1.26221e-05
1.25732e-05
1.26465e-05
1.25977e-05
1.26465e-05
1.25977e-05
1.26465e-05
1.25977e-05
1.26709e-05
1.25977e-05
1.26709e-05
1.26221e-05
1.26709e-05
1.26221e-05
1.26709e-05
1.26465e-05
1.26709e-05
1.26465e-05
1.26709e-05
1.26465e-05
1.26953e-05
1.26465e-05
1.26953e-05
1.26709e-05
1.26953e-05
1.26709e-05
1.27197e-05
1.26709e-05
1.27197e-05
1.26709e-05
1.27197e-05
1.26709e-05
1.27197e-05
1.26709e-05
1.27197e-05
1.26953e-05
1.27441e-05
1.26953e-05
1.27441e-05
1.26953e-05
1.27686e-05
1.26953e-05
1.27686e-05
1.27197e-05
1.27686e-05
1.27197e-05
1.27686e-05
1.27197e-05
1.27686e-05
1.27197e-05
1.27686e-05
1.27197e-05
1.2793e-05
1.27441e-05
1.2793e-05
1.27441e-05
1.2793e-05
1.27441e-05
1.2793e-05
1.27441e-05
1.28174e-05
1.27686e-05
1.2793e-05
1.27686e-05
1.28174e-05
1.27686e-05
1.28174e-05
1.27686e-05
1.28174e-05
1.27686e-05
1.28418e-05
1.2793e-05
1.28418e-05
1.2793e-05
1.28418e-05
1.2793e-05
1.28418e-05
1.2793e-05
1.28418e-05
1.2793e-05
1.28418e-05
1.2793e-05
1.28418e-05
1.2793e-05
1.28418e-05
1.2793e-05
1.28662e-05
1.28174e-05
1.28662e-05
1.2793e-05
1.28662e-05
1.28174e-05
1.28662e-05
1.28174e-05
1.28662e-05
1.28174e-05
1.28662e-05
1.28174e-05
1.28662e-05
1.28174e-05
1.28662e-05
1.28174e-05
1.28662e-05
1.28174e-05
1.28662e-05
1.28418e-05
1.28662e-05
1.28174e-05
1.28906e-05
1.28418e-05
1.28662e-05
1.28418e-05
1.28906e-05
1.28418e-05
1.28906e-05
1.28418e-05
1.28906e-05
1.28418e-05
1.28906e-05
1.28418e-05
1.28906e-05
1.28418e-05
1.28906e-05
1.28418e-05
1.28906e-05
1.28418e-05
1.28906e-05
1.28418e-05
1.28906e-05
1.28418e-05
1.2915e-05
1.28418e-05
1.2915e-05
1.28418e-05
1.2915e-05
1.28662e-05
1.2915e-05
1.28662e-05
1.2915e-05
1.28662e-05
1.2915e-05
1.28662e-05
1.2915e-05
1.28662e-05
1.2915e-05
1.28662e-05
1.2915e-05
1.28662e-05
1.2915e-05
1.28662e-05
1.2915e-05
1.28418e-05
1.2915e-05
1.28662e-05
1.2915e-05
1.28662e-05
1.2915e-05
1.28662e-05
1.2915e-05
1.28662e-05
1.2915e-05
1.28662e-05
1.2915e-05
1.28662e-05
1.2915e-05
1.28662e-05
1.2915e-05
1.28662e-05
1.2915e-05
1.28662e-05
1.2915e-05
1.28662e-05
1.2915e-05
1.28662e-05
1.2915e-05
1.28662e-05
1.2915e-05
1.28662e-05
1.2915e-05
1.28662e-05
1.2915e-05
1.28662e-05
1.2915e-05
1.28662e-05
1.29395e-05
1.28662e-05
1.2915e-05
1.28662e-05
1.29395e-05
1.28662e-05
1.2915e-05
1.28662e-05
1.2915e-05
1.28662e-05
1.2915e-05
1.28662e-05
1.29395e-05
1.28662e-05
1.29395e-05
1.28662e-05
1.29395e-05
1.28662e-05
1.29395e-05
1.28662e-05
1.29395e-05
1.28662e-05
1.29395e-05
1.28662e-05
1.29395e-05
1.28662e-05
1.29395e-05
1.28662e-05
1.29395e-05
1.28662e-05
1.29395e-05
1.28662e-05
1.29395e-05
1.28662e-05
1.29395e-05
1.28906e-05
1.29639e-05
1.28662e-05
1.29639e-05
1.28906e-05
1.29639e-05
1.28906e-05
1.29639e-05
1.28906e-05
1.29639e-05
1.28906e-05
1.29639e-05
1.28906e-05
1.29639e-05
1.28906e-05
1.29639e-05
1.28906e-05
1.29639e-05
1.28906e-05
1.29639e-05
1.28906e-05
1.29639e-05
1.28906e-05
1.29639e-05
1.28906e-05
1.29639e-05
1.28906e-05
1.29639e-05
1.28906e-05
1.29639e-05
1.28906e-05
1.29639e-05
1.28906e-05
1.29883e-05
1.2915e-05
1.29639e-05
1.28906e-05
1.29639e-05
1.28906e-05
1.29639e-05
1.28906e-05
1.29639e-05
1.28906e-05
1.29639e-05
1.2915e-05
1.29639e-05
1.28906e-05
1.29639e-05
1.2915e-05
1.29639e-05
1.2915e-05
1.29639e-05
1.2915e-05
1.29883e-05
1.28906e-05
1.29639e-05
1.2915e-05
1.29883e-05
1.28906e-05
1.29639e-05
1.28906e-05
1.29639e-05
1.2915e-05
1.29639e-05
1.28906e-05
1.29639e-05
1.28906e-05
1.29639e-05
1.2915e-05
1.29639e-05
1.28906e-05
1.29639e-05
1.28906e-05
1.29639e-05
1.28906e-05
1.29639e-05
1.28906e-05
1.29639e-05
1.28906e-05
1.29639e-05
1.28906e-05
1.29639e-05
1.28906e-05
1.29639e-05
1.28906e-05
1.29639e-05
1.28906e-05
1.29639e-05
1.28906e-05
1.29639e-05
1.28906e-05
1.29639e-05
1.28662e-05
1.29639e-05
1.28906e-05
1.29639e-05
1.28662e-05
1.29639e-05
1.28662e-05
1.29639e-05
1.28662e-05
1.29639e-05
1.28662e-05
1.29395e-05
1.28662e-05
1.29639e-05
1.28662e-05
1.29395e-05
1.28662e-05
1.29395e-05
1.28662e-05
1.29395e-05
1.28662e-05
1.29395e-05
1.28662e-05
1.29395e-05
1.28662e-05
1.29395e-05
1.28662e-05
1.2915e-05
1.28662e-05
1.29395e-05
1.28662e-05
1.2915e-05
1.28418e-05
1.29395e-05
1.28418e-05
1.2915e-05
1.28418e-05
1.29395e-05
1.28418e-05
1.2915e-05
1.28418e-05
1.2915e-05
1.28418e-05
1.2915e-05
1.28418e-05
1.2915e-05
1.28418e-05
1.2915e-05
1.28418e-05
1.2915e-05
1.28418e-05
1.2915e-05
1.28174e-05
1.2915e-05
1.28174e-05
1.2915e-05
1.28174e-05
1.28906e-05
1.28174e-05
1.28906e-05
1.28174e-05
1.28906e-05
1.28174e-05
1.28906e-05
1.28174e-05
1.28906e-05
1.28174e-05
1.28906e-05
1.28174e-05
1.28906e-05
1.28174e-05
1.28906e-05
1.2793e-05
1.28906e-05
1.2793e-05
1.28662e-05
1.2793e-05
1.28662e-05
1.2793e-05
1.28662e-05
1.2793e-05
1.28662e-05
1.2793e-05
1.28662e-05
1.2793e-05
1.28662e-05
1.2793e-05
1.28662e-05
1.2793e-05
1.28662e-05
1.2793e-05
1.28418e-05
1.27686e-05
1.28662e-05
1.27686e-05
1.28418e-05
1.27686e-05
1.28418e-05
1.27686e-05
1.28418e-05
1.27686e-05
1.28418e-05
1.27686e-05
1.28418e-05
1.27441e-05
1.28418e-05
1.27441e-05
1.28418e-05
1.27441e-05
1.28418e-05
1.27441e-05
1.28174e-05
1.27441e-05
1.28418e-05
1.27441e-05
1.28174e-05
1.27441e-05
1.28174e-05
1.27441e-05
1.2793e-05
1.27197e-05
1.28174e-05
1.27197e-05
1.28174e-05
1.27197e-05
1.2793e-05
1.27197e-05
1.2793e-05
1.27197e-05
1.2793e-05
1.26953e-05
1.2793e-05
1.26953e-05
1.2793e-05
1.26953e-05
1.2793e-05
1.26953e-05
1.2793e-05
1.26953e-05
1.2793e-05
1.26953e-05
1.2793e-05
1.26953e-05
1.27686e-05
1.26953e-05
1.2793e-05
1.26709e-05
1.27686e-05
1.26709e-05
1.27686e-05
1.26709e-05
1.27686e-05
1.26709e-05
1.27686e-05
1.26709e-05
1.27686e-05
1.26709e-05
1.27686e-05
1.26709e-05
1.27441e-05
1.26465e-05
1.27686e-05
1.26465e-05
1.27441e-05
1.26465e-05
1.27441e-05
1.26465e-05
1.27197e-05
1.26465e-05
1.27441e-05
1.26465e-05
1.27197e-05
1.26465e-05
1.27197e-05
1.26465e-05
1.27197e-05
1.26221e-05
1.27197e-05
1.26221e-05
1.27197e-05
1.26221e-05
1.27197e-05
1.26221e-05
1.27197e-05
1.26221e-05
1.27197e-05
1.26221e-05
1.26953e-05
1.25977e-05
1.27197e-05
1.25977e-05
1.26953e-05
1.25977e-05
1.26953e-05
1.25977e-05
1.26953e-05
1.25977e-05
1.26953e-05
1.25977e-05
1.26953e-05
1.25977e-05
1.26953e-05
1.25977e-05
1.26709e-05
1.25732e-05
1.26709e-05
1.25732e-05
1.26709e-05
1.25732e-05
1.26709e-05
1.25732e-05
1.26709e-05
1.25732e-05
1.26709e-05
1.25732e-05
1.26709e-05
1.25732e-05
1.26709e-05
1.25732e-05
1.26709e-05
1.25732e-05
1.26709e-05
1.25732e-05
1.26465e-05
1.25732e-05
1.26465e-05
1.25732e-05
1.26465e-05
1.25488e-05
1.26465e-05
1.25488e-05
1.26465e-05
1.25488e-05
1.26465e-05
1.25488e-05
1.26465e-05
1.25488e-05
1.26465e-05
1.25488e-05
1.26465e-05
1.25244e-05
1.26465e-05
1.25244e-05
1.26221e-05
1.25244e-05
1.26465e-05
1.25244e-05
1.26221e-05
1.25244e-05
1.26221e-05
1.25244e-05
1.26221e-05
1.25244e-05
1.26221e-05
1.25244e-05
1.26221e-05
1.25244e-05
1.26221e-05
1.25e-05
1.25977e-05
1.25e-05
1.26221e-05
1.25e-05
1.25977e-05
1.25e-05
1.25977e-05
1.25e-05
1.25977e-05
1.25e-05
1.25977e-05
1.25e-05
1.25977e-05
1.24756e-05
1.25977e-05
1.24756e-05
1.25977e-05
1.25e-05
1.25977e-05
1.24756e-05
1.25732e-05
1.25e-05
1.25732e-05
1.24756e-05
1.25732e-05
1.24756e-05
1.25732e-05
1.24756e-05
1.25732e-05
1.24756e-05
1.25732e-05
1.24756e-05
1.25732e-05
1.24756e-05
1.25732e-05
1.24756e-05
1.25732e-05
1.24756e-05
1.25732e-05
1.24756e-05
1.25732e-05
1.24512e-05
1.25732e-05
1.24512e-05
1.25732e-05
1.24512e-05
1.25732e-05
1.24512e-05
1.25732e-05
1.24512e-05
1.25732e-05
1.24512e-05
1.25732e-05
1.24512e-05
1.25488e-05
1.24512e-05
1.25488e-05
1.24512e-05
1.25488e-05
1.24512e-05
1.25244e-05
1.24512e-05
1.25488e-05
1.24512e-05
1.25488e-05
1.24512e-05
1.25488e-05
1.24512e-05
1.25488e-05
1.24512e-05
1.25488e-05
1.24512e-05
1.25244e-05
1.24512e-05
1.25488e-05
1.24268e-05
1.25244e-05
1.24268e-05
1.25488e-05
1.24268e-05
1.25244e-05
1.24268e-05
1.25244e-05
1.24268e-05
1.25244e-05
1.24268e-05
1.25244e-05
1.24268e-05
1.25244e-05
1.24268e-05
1.25244e-05
1.24268e-05
1.25244e-05
1.24268e-05
1.25244e-05
1.24268e-05
1.25244e-05
1.24268e-05
1.25244e-05
1.24268e-05
1.25244e-05
1.24268e-05
1.25488e-05
1.24268e-05
1.25244e-05
1.24268e-05
1.25244e-05
1.24268e-05
1.25244e-05
1.24268e-05
1.25244e-05
1.24268e-05
1.25244e-05
1.24268e-05
1.25244e-05
1.24268e-05
1.25244e-05
1.24268e-05
1.25244e-05
1.24268e-05
1.25244e-05
1.24268e-05
1.25244e-05
1.24268e-05
1.25244e-05
1.24268e-05
1.25488e-05
1.24268e-05
1.25488e-05
1.24268e-05
1.25488e-05
1.24512e-05
1.25488e-05
1.24268e-05
1.25488e-05
1.24512e-05
1.25488e-05
1.24268e-05
1.25488e-05
1.24512e-05
1.25488e-05
1.24512e-05
1.25732e-05
1.24512e-05
1.25732e-05
1.24512e-05
1.25732e-05
1.24512e-05
1.25732e-05
1.24512e-05
1.25732e-05
1.24512e-05
1.25732e-05
1.24756e-05
1.25732e-05
1.24756e-05
1.25732e-05
1.24756e-05
1.25732e-05
1.24756e-05
1.25732e-05
1.24756e-05
1.25732e-05
1.24756e-05
1.25977e-05
1.24756e-05
1.25732e-05
1.25e-05
1.25977e-05
1.24756e-05
1.25977e-05
1.25e-05
1.25977e-05
1.25e-05
1.25977e-05
1.25e-05
1.25977e-05
1.25e-05
1.26221e-05
1.25e-05
1.25977e-05
1.25e-05
1.26221e-05
1.25244e-05
1.26221e-05
1.25e-05
1.26221e-05
1.25244e-05
1.25977e-05
1.25244e-05
1.26465e-05
1.25244e-05
1.26221e-05
1.25244e-05
1.26465e-05
1.25244e-05
1.26465e-05
1.25244e-05
1.26465e-05
1.25244e-05
1.26465e-05
1.25244e-05
1.26465e-05
1.25488e-05
1.26465e-05
1.25488e-05
1.26465e-05
1.25488e-05
1.26709e-05
1.25488e-05
1.26465e-05
1.25488e-05
1.26465e-05
1.25488e-05
1.26709e-05
1.25732e-05
1.26709e-05
1.25732e-05
1.26709e-05
1.25732e-05
1.26709e-05
1.25732e-05
1.26709e-05
1.25732e-05
1.26709e-05
1.25732e-05
1.26709e-05
1.25732e-05
1.26709e-05
1.25732e-05
1.26709e-05
1.25732e-05
1.26709e-05
1.25732e-05
1.26709e-05
1.25732e-05
1.26709e-05
1.25732e-05
1.26709e-05
1.25732e-05
1.26709e-05
1.25732e-05
1.26953e-05
1.25732e-05
1.26709e-05
1.25732e-05
1.26953e-05
1.25732e-05
1.26709e-05
1.25977e-05
1.26953e-05
1.25732e-05
1.26709e-05
1.25732e-05
1.26953e-05
1.25732e-05
1.26709e-05
1.25732e-05
1.26953e-05
1.25732e-05
1.26709e-05
1.25732e-05
1.26953e-05
1.25732e-05
1.26709e-05
1.25732e-05
1.26953e-05
1.25977e-05
1.26953e-05
1.25732e-05
1.26953e-05
1.25732e-05
1.26709e-05
1.25732e-05
1.26953e-05
1.25732e-05
1.26709e-05
1.25732e-05
1.26953e-05
1.25732e-05
1.26953e-05
1.25732e-05
1.26953e-05
1.25977e-05
1.26953e-05
1.25732e-05
1.26953e-05
1.25732e-05
1.26709e-05
1.25732e-05
1.26953e-05
1.25732e-05
1.26709e-05
1.25732e-05
1.26953e-05
1.25732e-05
1.26709e-05
1.25732e-05
1.26953e-05
1.25732e-05
1.26953e-05
1.25732e-05
1.26953e-05
1.25732e-05
1.26953e-05
1.25732e-05
1.26953e-05
1.25732e-05
1.26709e-05
1.25732e-05
1.26709e-05
1.25732e-05
1.26709e-05
1.25732e-05
1.26953e-05
1.25732e-05
1.26709e-05
1.25732e-05
1.26709e-05
1.25732e-05
1.26709e-05
1.25732e-05
1.26709e-05
1.25732e-05
1.26709e-05
1.25732e-05
1.26709e-05
1.25732e-05
1.26709e-05
1.25732e-05
1.26709e-05
1.25732e-05
1.26709e-05
1.25732e-05
1.26709e-05
1.25732e-05
1.26709e-05
1.25732e-05
1.26709e-05
1.25732e-05
1.26709e-05
1.25732e-05
1.26709e-05
1.25732e-05
1.26709e-05
1.25732e-05
1.26709e-05
1.25732e-05
1.26709e-05
1.25732e-05
1.26709e-05
1.25732e-05
1.26709e-05
1.25488e-05
1.26709e-05
1.25732e-05
1.26709e-05
1.25488e-05
1.26709e-05
1.25732e-05
1.26465e-05
1.25488e-05
1.26709e-05
1.25488e-05
1.26465e-05
1.25488e-05
1.26709e-05
1.25488e-05
1.26465e-05
1.25488e-05
1.26709e-05
1.25488e-05
1.26465e-05
1.25244e-05
1.26709e-05
1.25488e-05
1.26465e-05
1.25488e-05
1.26709e-05
1.25488e-05
1.26465e-05
1.25244e-05
1.26465e-05
1.25488e-05
1.26465e-05
1.25488e-05
1.26465e-05
1.25244e-05
1.26465e-05
1.25244e-05
1.26465e-05
1.25244e-05
1.26465e-05
1.25488e-05
1.26465e-05
1.25488e-05
1.26465e-05
1.25244e-05
1.26465e-05
1.25244e-05
1.26465e-05
1.25244e-05
1.26465e-05
1.25244e-05
1.26465e-05
1.25244e-05
1.26465e-05
1.25244e-05
1.26465e-05
1.25244e-05
1.26465e-05
1.25244e-05
1.26465e-05
1.25244e-05
1.26465e-05
1.25244e-05
1.26465e-05
1.25244e-05
1.26465e-05
1.25488e-05
1.26465e-05
1.25244e-05
1.26465e-05
1.25244e-05
1.26465e-05
1.25488e-05
1.26709e-05
1.25488e-05
1.26465e-05
1.25244e-05
1.26709e-05
1.25488e-05
1.26709e-05
1.25488e-05
1.26709e-05
1.25488e-05
1.26465e-05
1.25488e-05
1.26709e-05
1.25488e-05
1.26465e-05
1.25488e-05
1.26709e-05
1.25488e-05
1.26465e-05
1.25488e-05
1.26709e-05
1.25488e-05
1.26465e-05
1.25488e-05
1.26709e-05
1.25488e-05
1.26465e-05
1.25488e-05
1.26709e-05
1.25488e-05
1.26709e-05
1.25488e-05
1.26709e-05
1.25488e-05
1.26709e-05
1.25488e-05
1.26709e-05
1.25488e-05
1.26709e-05
1.25488e-05
1.26709e-05
1.25488e-05
1.26709e-05
1.25488e-05
1.26709e-05
1.25732e-05
1.26709e-05
1.25488e-05
1.26709e-05
1.25488e-05
1.26709e-05
1.25732e-05
1.26709e-05
1.25732e-05
1.26709e-05
1.25732e-05
1.26709e-05
1.25732e-05
1.26709e-05
1.25732e-05
1.26709e-05
1.25732e-05
1.26709e-05
1.25732e-05
1.26709e-05
1.25732e-05
1.26709e-05
1.25732e-05
1.26709e-05
1.25732e-05
1.26709e-05
1.25732e-05
1.26709e-05
1.25732e-05
1.26709e-05
1.25732e-05
1.26709e-05
1.25732e-05
1.26709e-05
1.25732e-05
1.26709e-05
1.25732e-05
1.26709e-05
1.25488e-05
1.26709e-05
1.25732e-05
1.26709e-05
1.25488e-05
1.26709e-05
1.25488e-05
1.26709e-05
1.25488e-05
1.26709e-05
1.25732e-05
1.26709e-05
1.25488e-05
1.26709e-05
1.25488e-05
1.26709e-05
1.25488e-05
1.26709e-05
1.25732e-05
1.26709e-05
1.25488e-05
1.26709e-05
1.25488e-05
1.26709e-05
1.25488e-05
1.26709e-05
1.25488e-05
1.26709e-05
1.25488e-05
1.26709e-05
1.25488e-05
1.26709e-05
1.25488e-05
1.26709e-05
1.25732e-05
1.26709e-05
1.25488e-05
1.26709e-05
1.25488e-05
1.26709e-05
1.25488e-05
1.26709e-05
1.25488e-05
1.26709e-05
1.25488e-05
1.26709e-05
1.25488e-05
1.26709e-05
1.25488e-05
1.26709e-05
1.25488e-05
1.26709e-05
1.25488e-05
1.26709e-05
1.25488e-05
1.26709e-05
1.25732e-05
1.26709e-05
1.25488e-05
1.26709e-05
1.25732e-05
1.26709e-05
1.25732e-05
1.26709e-05
1.25732e-05
1.26953e-05
1.25732e-05
1.26709e-05
1.25732e-05
1.26953e-05
1.25732e-05
1.26709e-05
1.25977e-05
1.26953e-05
1.25732e-05
1.26953e-05
1.25732e-05
1.27197e-05
1.25977e-05
1.26953e-05
1.25977e-05
1.27197e-05
1.26221e-05
1.27197e-05
1.26221e-05
1.27197e-05
1.26221e-05
1.27197e-05
1.26221e-05
1.27441e-05
1.26465e-05
1.27441e-05
1.26221e-05
1.27686e-05
1.26465e-05
1.27686e-05
1.26465e-05
1.2793e-05
1.26709e-05
1.2793e-05
1.26709e-05
1.2793e-05
1.26709e-05
1.2793e-05
1.26709e-05
1.28174e-05
1.26953e-05
1.28174e-05
1.26953e-05
1.28418e-05
1.27197e-05
1.28418e-05
1.27197e-05
1.28662e-05
1.27441e-05
1.28662e-05
1.27441e-05
1.28662e-05
1.27686e-05
1.28906e-05
1.27686e-05
1.28906e-05
1.2793e-05
1.2915e-05
1.2793e-05
1.2915e-05
1.2793e-05
1.2915e-05
1.2793e-05
1.29395e-05
1.28418e-05
1.29395e-05
1.28174e-05
1.29639e-05
1.28418e-05
1.29639e-05
1.28662e-05
1.29639e-05
1.28662e-05
1.29883e-05
1.28662e-05
1.29883e-05
1.28906e-05
1.30127e-05
1.28906e-05
1.30127e-05
1.28906e-05
1.30371e-05
1.2915e-05
1.30371e-05
1.2915e-05
1.30615e-05
1.29395e-05
1.30615e-05
1.29395e-05
1.30859e-05
1.29639e-05
1.30859e-05
1.29639e-05
1.30859e-05
1.29639e-05
1.30859e-05
1.29883e-05
1.31104e-05
1.29639e-05
1.31104e-05
1.29883e-05
1.31104e-05
1.29883e-05
1.31348e-05
1.30127e-05
1.31348e-05
1.30127e-05
1.31592e-05
1.30371e-05
1.31592e-05
1.30615e-05
1.31836e-05
1.30615e-05
1.31592e-05
1.30615e-05
1.31836e-05
1.30859e-05
1.31836e-05
1.30859e-05
1.31836e-05
1.30859e-05
1.31836e-05
1.30859e-05
1.3208e-05
1.30859e-05
1.3208e-05
1.31104e-05
1.32324e-05
1.31104e-05
1.32324e-05
1.31104e-05
1.32324e-05
1.31104e-05
1.32324e-05
1.31348e-05
1.32324e-05
1.31348e-05
1.32324e-05
1.31104e-05
1.32568e-05
1.31348e-05
1.32568e-05
1.31348e-05
1.32568e-05
1.31592e-05
1.32568e-05
1.31592e-05
1.32568e-05
1.31592e-05
1.32568e-05
1.31592e-05
1.32812e-05
1.31836e-05
1.32568e-05
1.31836e-05
1.32812e-05
1.31836e-05
1.32568e-05
1.31836e-05
1.32812e-05
1.31836e-05
1.32568e-05
1.31836e-05
1.33057e-05
1.31836e-05
1.32812e-05
1.31836e-05
1.33057e-05
1.31836e-05
1.32812e-05
1.31836e-05
1.33057e-05
1.31836e-05
1.32812e-05
1.31836e-05
1.33057e-05
1.31836e-05
1.32812e-05
1.31836e-05
1.33057e-05
1.31836e-05
1.32812e-05
1.31836e-05
1.33057e-05
1.31836e-05
1.32812e-05
1.31836e-05
1.33057e-05
1.31836e-05
1.33057e-05
1.31836e-05
1.33057e-05
1.3208e-05
1.33057e-05
1.31836e-05
1.33057e-05
1.31836e-05
1.32812e-05
1.3208e-05
1.33057e-05
1.31836e-05
1.33057e-05
1.31836e-05
1.33057e-05
1.31836e-05
1.32812e-05
1.31836e-05
1.33057e-05
1.31836e-05
1.32812e-05
1.31836e-05
1.33057e-05
1.31836e-05
1.32812e-05
1.31836e-05
1.33057e-05
1.31836e-05
1.32812e-05
1.31836e-05
1.33057e-05
1.31836e-05
1.32812e-05
1.31836e-05
1.32812e-05
1.31836e-05
1.32568e-05
1.31836e-05
1.32812e-05
1.31836e-05
1.32568e-05
1.31592e-05
1.32812e-05
1.31592e-05
1.32812e-05
1.31592e-05
1.32568e-05
1.31592e-05
1.32812e-05
1.31592e-05
1.32812e-05
1.31592e-05
1.32568e-05
1.31592e-05
1.32568e-05
1.31592e-05
1.32324e-05
1.31348e-05
1.32568e-05
1.31348e-05
1.32324e-05
1.31104e-05
1.32324e-05
1.31348e-05
1.32324e-05
1.31348e-05
1.32324e-05
1.31104e-05
1.32324e-05
1.31104e-05
1.32324e-05
1.31104e-05
1.3208e-05
1.31104e-05
1.32324e-05
1.31104e-05
1.3208e-05
1.30859e-05
1.3208e-05
1.30859e-05
1.31836e-05
1.30859e-05
1.31836e-05
1.30859e-05
1.31836e-05
1.30859e-05
1.31836e-05
1.30859e-05
1.31836e-05
1.30859e-05
1.31836e-05
1.30615e-05
1.31592e-05
1.30615e-05
1.31836e-05
1.30615e-05
1.31592e-05
1.30615e-05
1.31592e-05
1.30615e-05
1.31592e-05
1.30615e-05
1.31592e-05
1.30371e-05
1.31348e-05
1.30371e-05
1.31592e-05
1.30371e-05
1.31348e-05
1.30371e-05
1.31348e-05
1.30371e-05
1.31104e-05
1.30127e-05
1.31104e-05
1.30127e-05
1.31104e-05
1.30127e-05
1.31104e-05
1.30127e-05
1.30859e-05
1.29883e-05
1.31104e-05
1.29883e-05
1.30859e-05
1.29883e-05
1.30859e-05
1.29883e-05
1.30859e-05
1.29883e-05
1.30859e-05
1.29639e-05
1.30859e-05
1.29639e-05
1.30859e-05
1.29639e-05
1.30615e-05
1.29639e-05
1.30615e-05
1.29639e-05
1.30371e-05
1.29395e-05
1.30615e-05
1.29395e-05
1.30371e-05
1.29395e-05
1.30371e-05
1.29395e-05
1.30371e-05
1.2915e-05
1.30371e-05
1.2915e-05
1.30127e-05
1.2915e-05
1.30371e-05
1.2915e-05
1.30127e-05
1.28906e-05
1.30127e-05
1.28906e-05
1.29883e-05
1.28906e-05
1.30127e-05
1.28906e-05
1.29883e-05
1.28662e-05
1.29883e-05
1.28662e-05
1.29639e-05
1.28662e-05
1.29639e-05
1.28662e-05
1.29639e-05
1.28662e-05
1.29639e-05
1.28662e-05
1.29639e-05
1.28662e-05
1.29639e-05
1.28418e-05
1.29395e-05
1.28418e-05
1.29639e-05
1.28418e-05
1.29395e-05
1.28418e-05
1.29395e-05
1.28418e-05
1.2915e-05
1.28418e-05
1.29395e-05
1.28174e-05
1.2915e-05
1.28174e-05
1.2915e-05
1.28174e-05
1.28906e-05
1.28174e-05
1.2915e-05
1.2793e-05
1.28906e-05
1.2793e-05
1.28906e-05
1.2793e-05
1.28906e-05
1.2793e-05
1.28906e-05
1.2793e-05
1.28662e-05
1.2793e-05
1.28906e-05
1.27686e-05
1.28662e-05
1.27686e-05
1.28662e-05
1.27686e-05
1.28662e-05
1.27686e-05
1.28662e-05
1.27441e-05
1.28662e-05
1.27441e-05
1.28662e-05
1.27441e-05
1.28418e-05
1.27441e-05
1.28418e-05
1.27441e-05
1.28418e-05
1.27197e-05
1.28418e-05
1.27197e-05
1.28174e-05
1.27197e-05
1.28418e-05
1.27197e-05
1.28418e-05
1.26953e-05
1.28174e-05
1.26953e-05
1.28174e-05
1.26953e-05
1.28174e-05
1.26953e-05
1.2793e-05
1.26953e-05
1.2793e-05
1.26709e-05
1.2793e-05
1.26709e-05
1.2793e-05
1.26709e-05
1.2793e-05
1.26709e-05
1.2793e-05
1.26709e-05
1.27686e-05
1.26709e-05
1.2793e-05
1.26709e-05
1.27686e-05
1.26709e-05
1.27686e-05
1.26709e-05
1.27686e-05
1.26709e-05
1.27686e-05
1.26709e-05
1.27686e-05
1.26709e-05
1.27686e-05
1.26465e-05
1.27686e-05
1.26465e-05
1.27686e-05
1.26709e-05
1.27441e-05
1.26465e-05
1.27686e-05
1.26465e-05
1.27441e-05
1.26465e-05
1.27686e-05
1.26465e-05
1.27441e-05
1.26709e-05
1.27686e-05
1.26465e-05
1.27441e-05
1.26465e-05
1.27686e-05
1.26465e-05
1.27441e-05
1.26709e-05
1.27686e-05
1.26465e-05
1.27441e-05
1.26465e-05
1.27686e-05
1.26709e-05
1.27686e-05
1.26709e-05
1.27686e-05
1.26709e-05
1.27686e-05
1.26709e-05
1.2793e-05
1.26709e-05
1.27686e-05
1.26709e-05
1.2793e-05
1.26709e-05
1.27686e-05
1.26709e-05
1.2793e-05
1.26709e-05
1.2793e-05
1.26709e-05
1.2793e-05
1.26709e-05
1.2793e-05
1.26709e-05
1.2793e-05
1.26953e-05
1.2793e-05
1.26709e-05
1.28174e-05
1.26953e-05
1.2793e-05
1.26953e-05
1.28174e-05
1.26953e-05
1.28174e-05
1.26953e-05
1.28174e-05
1.27197e-05
1.28174e-05
1.27197e-05
1.28418e-05
1.27197e-05
1.28174e-05
1.27197e-05
1.28418e-05
1.27197e-05
1.28418e-05
1.27197e-05
1.28662e-05
1.27441e-05
1.28418e-05
1.27441e-05
1.28662e-05
1.27441e-05
1.28662e-05
1.27686e-05
1.28662e-05
1.27686e-05
1.28662e-05
1.27686e-05
1.28662e-05
1.27686e-05
1.28906e-05
1.27686e-05
1.28906e-05
1.27686e-05
1.28906e-05
1.2793e-05
1.28906e-05
1.2793e-05
1.28906e-05
1.2793e-05
1.2915e-05
1.2793e-05
1.2915e-05
1.2793e-05
1.2915e-05
1.2793e-05
1.28906e-05
1.28174e-05
1.29395e-05
1.28174e-05
1.2915e-05
1.28174e-05
1.29395e-05
1.28174e-05
1.29395e-05
1.28418e-05
1.29395e-05
1.28174e-05
1.29395e-05
1.28418e-05
1.29639e-05
1.28418e-05
1.29639e-05
1.28418e-05
1.29639e-05
1.28418e-05
1.29639e-05
1.28662e-05
1.29639e-05
1.28418e-05
1.29639e-05
1.28662e-05
1.29639e-05
1.28662e-05
1.29639e-05
1.28662e-05
1.29639e-05
1.28662e-05
1.29883e-05
1.28662e-05
1.29883e-05
1.28662e-05
1.29883e-05
1.28662e-05
1.29883e-05
1.28662e-05
1.29883e-05
1.28906e-05
1.29883e-05
1.28906e-05
1.29883e-05
1.28906e-05
1.30127e-05
1.28906e-05
1.30127e-05
1.28906e-05
1.30127e-05
1.28906e-05
1.30127e-05
1.28906e-05
1.30127e-05
1.2915e-05
1.30127e-05
1.2915e-05
1.30371e-05
1.2915e-05
1.30127e-05
1.2915e-05
1.30371e-05
1.2915e-05
1.30127e-05
1.2915e-05
1.30371e-05
1.2915e-05
1.30371e-05
1.2915e-05
1.30371e-05
1.2915e-05
1.30371e-05
1.2915e-05
1.30371e-05
1.2915e-05
1.30371e-05
1.2915e-05
1.30371e-05
1.29395e-05
1.30371e-05
1.29395e-05
1.30615e-05
1.29395e-05
1.30371e-05
1.29395e-05
1.30615e-05
1.29395e-05
1.30371e-05
1.29395e-05
1.30615e-05
1.29395e-05
1.30615e-05
1.29395e-05
1.30859e-05
1.29395e-05
1.30615e-05
1.29395e-05
1.30859e-05
1.29395e-05
1.30615e-05
1.29639e-05
1.30859e-05
1.29639e-05
1.30615e-05
1.29639e-05
1.30859e-05
1.29639e-05
1.30859e-05
1.29639e-05
1.30859e-05
1.29639e-05
1.30615e-05
1.29639e-05
1.30859e-05
1.29639e-05
1.30859e-05
1.29639e-05
1.30859e-05
1.29883e-05
1.30859e-05
1.29639e-05
1.31104e-05
1.29639e-05
1.30859e-05
1.29639e-05
1.31104e-05
1.29883e-05
1.30859e-05
1.29639e-05
1.31104e-05
1.29883e-05
1.31104e-05
1.29883e-05
1.31104e-05
1.29883e-05
1.31104e-05
1.30127e-05
1.31348e-05
1.30127e-05
1.31348e-05
1.30127e-05
1.31348e-05
1.30127e-05
1.31348e-05
1.30371e-05
1.31592e-05
1.30371e-05
1.31592e-05
1.30371e-05
1.31592e-05
1.30615e-05
1.31592e-05
1.30615e-05
1.31836e-05
1.30615e-05
1.31836e-05
1.30615e-05
1.31836e-05
1.30859e-05
1.31836e-05
1.30859e-05
1.3208e-05
1.30859e-05
1.3208e-05
1.31104e-05
1.32324e-05
1.31104e-05
1.32324e-05
1.31348e-05
1.32568e-05
1.31348e-05
1.32568e-05
1.31592e-05
1.32812e-05
1.31592e-05
1.32568e-05
1.31836e-05
1.32812e-05
1.31836e-05
1.32812e-05
1.31836e-05
1.33057e-05
1.3208e-05
1.33057e-05
1.3208e-05
1.33301e-05
1.3208e-05
1.33301e-05
1.32324e-05
1.33545e-05
1.32324e-05
1.33545e-05
1.32568e-05
1.33789e-05
1.32568e-05
1.33789e-05
1.32568e-05
1.33789e-05
1.32568e-05
1.34033e-05
1.32812e-05
1.34277e-05
1.32812e-05
1.34033e-05
1.33057e-05
1.34277e-05
1.33057e-05
1.34277e-05
1.33301e-05
1.34521e-05
1.33301e-05
1.34521e-05
1.33301e-05
1.34766e-05
1.33545e-05
1.34766e-05
1.33545e-05
1.3501e-05
1.33545e-05
1.3501e-05
1.33789e-05
1.35254e-05
1.33789e-05
1.35254e-05
1.34033e-05
1.35498e-05
1.34277e-05
1.35498e-05
1.34277e-05
1.35742e-05
1.34521e-05
1.35742e-05
1.34521e-05
1.35986e-05
1.34521e-05
1.35986e-05
1.34766e-05
1.3623e-05
1.3501e-05
1.3623e-05
1.3501e-05
1.36475e-05
1.3501e-05
1.36475e-05
1.35498e-05
1.36719e-05
1.35498e-05
1.36719e-05
1.35498e-05
1.36963e-05
1.35742e-05
1.36963e-05
1.35742e-05
1.37207e-05
1.35986e-05
1.37451e-05
1.3623e-05
1.37451e-05
1.3623e-05
1.37451e-05
1.3623e-05
1.37939e-05
1.36475e-05
1.37695e-05
1.36719e-05
1.38184e-05
1.36719e-05
1.38184e-05
1.36963e-05
1.38428e-05
1.36963e-05
1.38428e-05
1.36963e-05
1.38672e-05
1.37207e-05
1.38672e-05
1.37207e-05
1.38916e-05
1.37451e-05
1.38916e-05
1.37695e-05
1.3916e-05
1.37695e-05
1.3916e-05
1.37939e-05
1.39404e-05
1.37939e-05
1.39404e-05
1.38184e-05
1.39648e-05
1.38184e-05
1.39648e-05
1.38184e-05
1.39648e-05
1.38428e-05
1.39648e-05
1.38428e-05
1.39893e-05
1.38428e-05
1.39893e-05
1.38672e-05
1.40137e-05
1.38672e-05
1.39893e-05
1.38672e-05
1.40137e-05
1.38672e-05
1.40137e-05
1.38672e-05
1.40381e-05
1.38916e-05
1.40381e-05
1.38916e-05
1.40381e-05
1.38916e-05
1.40381e-05
1.38916e-05
1.40625e-05
1.38916e-05
1.40381e-05
1.3916e-05
1.40625e-05
1.38916e-05
1.40381e-05
1.3916e-05
1.40625e-05
1.3916e-05
1.40381e-05
1.3916e-05
1.40625e-05
1.3916e-05
1.40625e-05
1.3916e-05
1.40625e-05
1.3916e-05
1.40625e-05
1.39404e-05
1.40625e-05
1.3916e-05
1.40381e-05
1.38916e-05
1.40625e-05
1.3916e-05
1.40625e-05
1.3916e-05
1.40625e-05
1.3916e-05
1.40625e-05
1.3916e-05
1.40625e-05
1.3916e-05
1.40625e-05
1.3916e-05
1.40625e-05
1.3916e-05
1.40625e-05
1.3916e-05
1.40381e-05
1.3916e-05
1.40381e-05
1.38916e-05
1.40625e-05
1.3916e-05
1.40381e-05
1.38916e-05
1.40381e-05
1.38916e-05
1.40381e-05
1.38916e-05
1.40381e-05
1.38916e-05
1.40381e-05
1.38916e-05
1.40381e-05
1.38916e-05
1.40137e-05
1.38672e-05
1.40381e-05
1.38672e-05
1.40137e-05
1.38672e-05
1.40137e-05
1.38916e-05
1.39893e-05
1.38916e-05
1.40137e-05
1.38672e-05
1.39893e-05
1.38672e-05
1.40137e-05
1.38672e-05
1.39893e-05
1.38672e-05
1.39893e-05
1.38672e-05
1.39648e-05
1.38672e-05
1.39893e-05
1.38672e-05
1.39648e-05
1.38672e-05
1.39648e-05
1.38672e-05
1.39648e-05
1.38672e-05
1.39648e-05
1.38672e-05
1.39648e-05
1.38672e-05
1.39893e-05
1.38672e-05
1.39648e-05
1.38672e-05
1.39648e-05
1.38672e-05
1.39648e-05
1.38672e-05
1.39648e-05
1.38672e-05
1.39648e-05
1.38672e-05
1.39648e-05
1.38672e-05
1.39648e-05
1.38672e-05
1.39893e-05
1.38672e-05
1.39648e-05
1.38672e-05
1.39893e-05
1.38672e-05
1.39648e-05
1.38672e-05
1.39893e-05
1.38672e-05
1.39893e-05
1.38672e-05
1.40137e-05
1.38672e-05
1.39893e-05
1.38672e-05
1.39893e-05
1.38672e-05
1.39893e-05
1.38672e-05
1.40137e-05
1.38672e-05
1.39893e-05
1.38672e-05
1.40137e-05
1.38916e-05
1.40137e-05
1.38916e-05
1.40137e-05
1.38916e-05
1.40137e-05
1.38916e-05
1.40381e-05
1.38916e-05
1.40381e-05
1.38916e-05
1.40381e-05
1.3916e-05
1.40381e-05
1.3916e-05
1.40381e-05
1.39404e-05
1.40381e-05
1.3916e-05
1.40381e-05
1.39404e-05
1.40625e-05
1.39404e-05
1.40625e-05
1.39404e-05
1.40625e-05
1.39404e-05
1.40625e-05
1.39648e-05
1.40625e-05
1.39648e-05
1.40625e-05
1.39648e-05
1.40625e-05
1.39648e-05
1.40869e-05
1.39648e-05
1.40625e-05
1.39648e-05
1.40869e-05
1.39648e-05
1.40625e-05
1.39648e-05
1.40869e-05
1.39648e-05
1.40869e-05
1.39648e-05
1.40869e-05
1.39648e-05
1.40869e-05
1.39648e-05
1.40869e-05
1.39893e-05
1.40869e-05
1.39893e-05
1.40869e-05
1.39893e-05
1.40869e-05
1.39893e-05
1.40869e-05
1.39893e-05
1.40869e-05
1.39893e-05
1.40869e-05
1.39893e-05
1.40869e-05
1.39893e-05
1.40869e-05
1.39893e-05
1.40869e-05
1.39648e-05
1.40869e-05
1.39893e-05
1.40869e-05
1.39648e-05
1.40869e-05
1.39648e-05
1.40869e-05
1.39648e-05
1.40869e-05
1.39893e-05
1.40869e-05
1.39893e-05
1.40869e-05
1.39648e-05
1.40869e-05
1.39893e-05
1.40869e-05
1.39648e-05
1.40625e-05
1.39648e-05
1.40869e-05
1.39648e-05
1.40625e-05
1.39648e-05
1.40869e-05
1.39648e-05
1.40625e-05
1.39648e-05
1.40869e-05
1.39648e-05
1.40625e-05
1.39648e-05
1.40625e-05
1.39404e-05
1.40625e-05
1.39648e-05
1.40869e-05
1.39648e-05
1.40381e-05
1.39404e-05
1.40625e-05
1.39404e-05
1.40381e-05
1.39404e-05
1.40625e-05
1.39404e-05
1.40381e-05
1.39404e-05
1.40381e-05
1.39404e-05
1.40381e-05
1.3916e-05
1.40381e-05
1.3916e-05
1.40381e-05
1.3916e-05
1.40381e-05
1.3916e-05
1.40137e-05
1.38916e-05
1.40137e-05
1.38916e-05
1.40137e-05
1.38916e-05
1.40137e-05
1.38916e-05
1.39893e-05
1.38672e-05
1.39893e-05
1.38916e-05
1.39893e-05
1.38672e-05
1.39893e-05
1.38672e-05
1.39648e-05
1.38672e-05
1.39893e-05
1.38672e-05
1.39648e-05
1.38672e-05
1.39648e-05
1.38672e-05
1.39648e-05
1.38428e-05
1.39648e-05
1.38428e-05
1.39404e-05
1.38428e-05
1.39648e-05
1.38184e-05
1.39404e-05
1.38184e-05
1.39648e-05
1.38184e-05
1.39404e-05
1.38184e-05
1.39404e-05
1.38184e-05
1.3916e-05
1.37939e-05
1.3916e-05
1.37939e-05
1.38916e-05
1.37695e-05
1.38916e-05
1.37695e-05
1.38916e-05
1.37695e-05
1.38916e-05
1.37695e-05
1.38672e-05
1.37695e-05
1.38916e-05
1.37451e-05
1.38672e-05
1.37451e-05
1.38672e-05
1.37451e-05
1.38672e-05
1.37451e-05
1.38672e-05
1.37451e-05
1.38428e-05
1.37207e-05
1.38428e-05
1.37207e-05
1.38428e-05
1.37207e-05
1.38428e-05
1.36963e-05
1.38184e-05
1.37207e-05
1.38184e-05
1.36963e-05
1.38184e-05
1.36963e-05
1.38184e-05
1.36963e-05
1.37939e-05
1.36719e-05
1.37939e-05
1.36719e-05
1.37695e-05
1.36719e-05
1.37695e-05
1.36719e-05
1.37695e-05
1.36475e-05
1.37695e-05
1.36475e-05
1.37451e-05
1.36475e-05
1.37451e-05
1.3623e-05
1.37451e-05
1.3623e-05
1.37451e-05
1.3623e-05
1.37207e-05
1.35986e-05
1.37207e-05
1.35986e-05
1.37207e-05
1.35986e-05
1.37207e-05
1.35742e-05
1.36963e-05
1.35742e-05
1.36963e-05
1.35742e-05
1.36963e-05
1.35742e-05
1.36719e-05
1.35498e-05
1.36719e-05
1.35498e-05
1.36719e-05
1.35498e-05
1.36475e-05
1.35254e-05
1.36475e-05
1.35498e-05
1.36475e-05
1.3501e-05
1.36475e-05
1.3501e-05
1.3623e-05
1.3501e-05
1.3623e-05
1.3501e-05
1.3623e-05
1.34766e-05
1.3623e-05
1.34766e-05
1.35986e-05
1.34766e-05
1.35986e-05
1.34766e-05
1.35742e-05
1.34521e-05
1.35742e-05
1.34521e-05
1.35742e-05
1.34521e-05
1.35742e-05
1.34277e-05
1.35498e-05
1.34277e-05
1.35742e-05
1.34277e-05
1.35498e-05
1.34277e-05
1.35498e-05
1.34277e-05
1.35498e-05
1.34033e-05
1.35498e-05
1.34033e-05
1.35254e-05
1.34033e-05
1.35254e-05
1.34033e-05
1.3501e-05
1.34033e-05
1.35254e-05
1.33789e-05
1.3501e-05
1.34033e-05
1.3501e-05
1.33789e-05
1.3501e-05
1.33789e-05
1.3501e-05
1.33789e-05
1.34766e-05
1.33789e-05
1.34766e-05
1.33789e-05
1.34766e-05
1.33789e-05
1.3501e-05
1.33545e-05
1.34521e-05
1.33545e-05
1.34766e-05
1.33545e-05
1.34766e-05
1.33545e-05
1.34766e-05
1.33545e-05
1.34521e-05
1.33545e-05
1.34766e-05
1.33545e-05
1.34521e-05
1.33545e-05
1.34766e-05
1.33545e-05
1.34521e-05
1.33545e-05
1.34521e-05
1.33545e-05
1.34521e-05
1.33545e-05
1.34766e-05
1.33545e-05
1.34521e-05
1.33545e-05
1.34766e-05
1.33545e-05
1.34521e-05
1.33545e-05
1.34766e-05
1.33545e-05
1.34766e-05
1.33545e-05
1.34521e-05
1.33545e-05
1.34521e-05
1.33545e-05
1.34766e-05
1.33545e-05
1.34766e-05
1.33545e-05
1.34766e-05
1.33545e-05
1.34766e-05
1.33545e-05
1.34766e-05
1.33545e-05
1.34766e-05
1.33545e-05
1.3501e-05
1.33789e-05
1.3501e-05
1.33789e-05
1.3501e-05
1.33789e-05
1.3501e-05
1.33789e-05
1.3501e-05
1.33789e-05
1.3501e-05
1.33789e-05
1.35254e-05
1.33789e-05
1.35254e-05
1.34033e-05
1.35254e-05
1.34033e-05
1.35254e-05
1.34033e-05
1.35498e-05
1.34277e-05
1.35254e-05
1.34277e-05
1.35498e-05
1.34277e-05
1.35498e-05
1.34277e-05
1.35498e-05
1.34277e-05
1.35498e-05
1.34277e-05
1.35742e-05
1.34521e-05
1.35498e-05
1.34521e-05
1.35742e-05
1.34521e-05
1.35742e-05
1.34521e-05
1.35986e-05
1.34521e-05
1.35742e-05
1.34521e-05
1.35986e-05
1.34766e-05
1.35742e-05
1.34766e-05
1.35986e-05
1.34766e-05
1.35986e-05
1.34766e-05
1.3623e-05
1.34766e-05
1.3623e-05
1.3501e-05
1.3623e-05
1.3501e-05
1.3623e-05
1.3501e-05
1.36475e-05
1.3501e-05
1.3623e-05
1.35254e-05
1.36475e-05
1.35254e-05
1.36475e-05
1.35254e-05
1.36475e-05
1.35254e-05
1.36475e-05
1.35254e-05
1.36475e-05
1.35498e-05
1.36475e-05
1.35254e-05
1.36719e-05
1.35498e-05
1.36719e-05
1.35498e-05
1.36719e-05
1.35498e-05
1.36719e-05
1.35498e-05
1.36719e-05
1.35498e-05
1.36719e-05
1.35498e-05
1.36719e-05
1.35742e-05
1.36719e-05
1.35498e-05
1.36963e-05
1.35498e-05
1.36719e-05
1.35498e-05
1.36719e-05
1.35742e-05
1.36963e-05
1.35742e-05
1.36963e-05
1.35742e-05
1.36719e-05
1.35742e-05
1.36719e-05
1.35742e-05
1.36963e-05
1.35742e-05
1.36963e-05
1.35742e-05
1.36963e-05
1.35742e-05
1.36963e-05
1.35742e-05
1.36963e-05
1.35742e-05
1.36963e-05
1.35742e-05
1.36963e-05
1.35742e-05
1.36963e-05
1.35742e-05
1.36963e-05
1.35742e-05
1.36963e-05
1.35742e-05
1.36963e-05
1.35742e-05
1.36963e-05
1.35742e-05
1.36963e-05
1.35742e-05
1.36963e-05
1.35742e-05
1.36963e-05
1.35742e-05
1.36963e-05
1.35742e-05
1.36963e-05
1.35742e-05
1.36963e-05
1.35742e-05
1.36963e-05
1.35742e-05
1.36963e-05
1.35742e-05
1.36963e-05
1.35742e-05
1.36963e-05
1.35742e-05
1.36719e-05
1.35742e-05
1.36963e-05
1.35742e-05
1.36719e-05
1.35742e-05
1.36963e-05
1.35498e-05
1.36719e-05
1.35498e-05
1.36719e-05
1.35498e-05
1.36719e-05
1.35498e-05
1.36963e-05
1.35498e-05
1.36719e-05
1.35498e-05
1.36719e-05
1.35498e-05
1.36719e-05
1.35498e-05
1.36719e-05
1.35254e-05
1.36719e-05
1.35254e-05
1.36475e-05
1.35498e-05
1.36475e-05
1.35254e-05
1.36475e-05
1.35254e-05
1.36475e-05
1.35498e-05
1.36475e-05
1.35254e-05
1.3623e-05
1.35254e-05
1.36475e-05
1.35254e-05
1.3623e-05
1.3501e-05
1.36475e-05
1.3501e-05
1.3623e-05
1.3501e-05
1.3623e-05
1.3501e-05
1.3623e-05
1.3501e-05
1.3623e-05
1.3501e-05
1.35986e-05
1.3501e-05
1.3623e-05
1.3501e-05
1.3623e-05
1.34766e-05
1.3623e-05
1.34766e-05
1.35986e-05
1.34766e-05
1.35986e-05
1.34766e-05
1.35742e-05
1.34766e-05
1.35986e-05
1.34766e-05
1.35742e-05
1.34766e-05
1.35986e-05
1.34521e-05
1.35742e-05
1.34521e-05
1.35742e-05
1.34521e-05
1.35742e-05
1.34521e-05
1.35742e-05
1.34521e-05
1.35742e-05
1.34521e-05
1.35742e-05
1.34521e-05
1.35498e-05
1.34277e-05
1.35498e-05
1.34277e-05
1.35498e-05
1.34277e-05
1.35498e-05
1.34277e-05
1.35498e-05
1.34033e-05
1.35498e-05
1.34033e-05
1.35254e-05
1.34033e-05
1.35254e-05
1.34033e-05
1.35254e-05
1.34033e-05
1.35254e-05
1.33789e-05
1.3501e-05
1.33789e-05
1.3501e-05
1.33789e-05
1.3501e-05
1.33789e-05
1.3501e-05
1.33789e-05
1.34766e-05
1.33545e-05
1.3501e-05
1.33545e-05
1.34766e-05
1.33545e-05
1.34766e-05
1.33545e-05
1.34766e-05
1.33545e-05
1.34766e-05
1.33545e-05
1.34521e-05
1.33545e-05
1.34521e-05
1.33301e-05
1.34521e-05
1.33301e-05
1.34521e-05
1.33301e-05
1.34521e-05
1.33057e-05
1.34521e-05
1.33057e-05
1.34277e-05
1.33057e-05
1.34521e-05
1.33057e-05
1.34277e-05
1.33057e-05
1.34277e-05
1.33057e-05
1.34033e-05
1.32812e-05
1.34033e-05
1.32812e-05
1.34033e-05
1.32812e-05
1.34033e-05
1.32812e-05
1.34033e-05
1.32812e-05
1.33789e-05
1.32568e-05
1.33789e-05
1.32568e-05
1.33789e-05
1.32568e-05
1.33545e-05
1.32568e-05
1.33789e-05
1.32568e-05
1.33545e-05
1.32568e-05
1.33545e-05
1.32568e-05
1.33545e-05
1.32324e-05
1.33545e-05
1.32324e-05
1.33301e-05
1.32324e-05
1.33545e-05
1.32324e-05
1.33301e-05
1.32324e-05
1.33301e-05
1.32324e-05
1.33301e-05
1.3208e-05
1.33301e-05
1.3208e-05
1.33057e-05
1.3208e-05
1.33057e-05
1.31836e-05
1.33057e-05
1.31836e-05
1.33057e-05
1.31836e-05
1.32812e-05
1.31836e-05
1.33057e-05
1.31836e-05
1.32812e-05
1.31836e-05
1.32812e-05
1.31836e-05
1.32812e-05
1.31836e-05
1.32812e-05
1.31836e-05
1.32812e-05
1.31592e-05
1.32812e-05
1.31592e-05
1.32568e-05
1.31592e-05
1.32568e-05
1.31592e-05
1.32568e-05
1.31592e-05
1.32568e-05
1.31592e-05
1.32568e-05
1.31592e-05
1.32568e-05
1.31592e-05
1.32568e-05
1.31592e-05
1.32568e-05
1.31348e-05
1.32324e-05
1.31348e-05
1.32568e-05
1.31348e-05
1.32324e-05
1.31348e-05
1.32324e-05
1.31348e-05
1.32324e-05
1.31348e-05
1.32324e-05
1.31348e-05
1.32324e-05
1.31104e-05
1.32324e-05
1.31104e-05
1.32324e-05
1.31104e-05
1.32324e-05
1.31104e-05
1.32324e-05
1.31104e-05
1.32324e-05
1.31104e-05
1.3208e-05
1.31104e-05
1.32324e-05
1.31104e-05
1.32324e-05
1.31104e-05
1.32324e-05
1.31104e-05
1.32324e-05
1.31104e-05
1.32324e-05
1.31104e-05
1.32324e-05
1.31104e-05
1.32324e-05
1.31104e-05
1.32324e-05
1.31104e-05
1.32568e-05
1.31104e-05
1.32324e-05
1.31348e-05
1.32568e-05
1.31348e-05
1.32568e-05
1.31348e-05
1.32568e-05
1.31348e-05
1.32324e-05
1.31348e-05
1.32568e-05
1.31348e-05
1.32568e-05
1.31348e-05
1.32568e-05
1.31592e-05
1.32568e-05
1.31592e-05
1.32812e-05
1.31592e-05
1.32812e-05
1.31592e-05
1.32812e-05
1.31592e-05
1.32812e-05
1.31592e-05
1.33057e-05
1.31836e-05
1.33057e-05
1.31836e-05
1.33057e-05
1.31836e-05
1.33057e-05
1.31836e-05
1.33057e-05
1.3208e-05
1.33057e-05
1.3208e-05
1.33301e-05
1.32324e-05
1.33301e-05
1.32324e-05
1.33545e-05
1.32324e-05
1.33545e-05
1.32324e-05
1.33545e-05
1.32568e-05
1.33545e-05
1.32568e-05
1.33789e-05
1.32568e-05
1.33789e-05
1.32568e-05
1.33789e-05
1.32812e-05
1.33789e-05
1.32812e-05
1.34033e-05
1.32812e-05
1.34033e-05
1.33057e-05
1.34277e-05
1.33057e-05
1.34277e-05
1.33301e-05
1.34277e-05
1.33301e-05
1.34521e-05
1.33301e-05
1.34521e-05
1.33301e-05
1.34521e-05
1.33545e-05
1.34766e-05
1.33545e-05
1.34766e-05
1.33545e-05
1.34766e-05
1.33789e-05
1.34766e-05
1.33789e-05
1.3501e-05
1.33789e-05
1.3501e-05
1.33789e-05
1.35254e-05
1.34033e-05
1.3501e-05
1.34277e-05
1.35254e-05
1.34277e-05
1.35254e-05
1.34277e-05
1.35498e-05
1.34277e-05
1.35498e-05
1.34521e-05
1.35742e-05
1.34521e-05
1.35742e-05
1.34521e-05
1.35742e-05
1.34521e-05
1.35742e-05
1.34766e-05
1.35986e-05
1.34766e-05
1.35986e-05
1.34766e-05
1.3623e-05
1.34766e-05
1.35986e-05
1.3501e-05
1.3623e-05
1.3501e-05
1.3623e-05
1.3501e-05
1.3623e-05
1.3501e-05
1.3623e-05
1.3501e-05
1.36475e-05
1.35254e-05
1.36475e-05
1.35254e-05
1.36719e-05
1.35498e-05
1.36475e-05
1.35498e-05
1.36719e-05
1.35498e-05
1.36719e-05
1.35498e-05
1.36719e-05
1.35742e-05
1.36719e-05
1.35742e-05
1.36963e-05
1.35742e-05
1.36719e-05
1.35742e-05
1.36963e-05
1.35742e-05
1.36963e-05
1.35742e-05
1.36963e-05
1.35986e-05
1.36963e-05
1.35986e-05
1.37207e-05
1.35986e-05
1.37207e-05
1.35986e-05
1.37207e-05
1.35986e-05
1.37207e-05
1.3623e-05
1.37451e-05
1.3623e-05
1.37207e-05
1.3623e-05
1.37451e-05
1.3623e-05
1.37451e-05
1.3623e-05
1.37451e-05
1.3623e-05
1.37451e-05
1.3623e-05
1.37451e-05
1.3623e-05
1.37451e-05
1.3623e-05
1.37451e-05
1.36475e-05
1.37451e-05
1.3623e-05
1.37451e-05
1.36475e-05
1.37451e-05
1.36475e-05
1.37695e-05
1.36475e-05
1.37451e-05
1.36475e-05
1.37695e-05
1.36475e-05
1.37451e-05
1.36475e-05
1.37695e-05
1.36475e-05
1.37451e-05
1.36475e-05
1.37695e-05
1.36475e-05
1.37451e-05
1.36475e-05
1.37695e-05
1.36475e-05
1.37695e-05
1.36475e-05
1.37695e-05
1.36475e-05
1.37451e-05
1.36475e-05
1.37695e-05
1.36475e-05
1.37451e-05
1.36475e-05
1.37451e-05
1.36475e-05
1.37451e-05
1.36475e-05
1.37451e-05
1.36475e-05
1.37451e-05
1.36475e-05
1.37451e-05
1.36475e-05
1.37451e-05
1.3623e-05
1.37451e-05
1.3623e-05
1.37451e-05
1.36475e-05
1.37451e-05
1.3623e-05
1.37451e-05
1.3623e-05
1.37451e-05
1.3623e-05
1.37207e-05
1.3623e-05
1.37451e-05
1.3623e-05
1.37451e-05
1.3623e-05
1.37207e-05
1.35986e-05
1.37207e-05
1.35986e-05
1.37207e-05
1.35986e-05
1.37207e-05
1.35986e-05
1.37207e-05
1.35986e-05
1.36963e-05
1.35986e-05
1.36963e-05
1.35986e-05
1.36963e-05
1.35986e-05
1.36963e-05
1.35742e-05
1.36963e-05
1.35742e-05
1.36963e-05
1.35742e-05
1.36719e-05
1.35742e-05
1.36963e-05
1.35742e-05
1.36719e-05
1.35742e-05
1.36719e-05
1.35742e-05
1.36719e-05
1.35742e-05
1.36719e-05
1.35498e-05
1.36719e-05
1.35498e-05
1.36719e-05
1.35498e-05
1.36719e-05
1.35498e-05
1.36719e-05
1.35498e-05
1.36475e-05
1.35498e-05
1.36475e-05
1.35254e-05
1.36475e-05
1.35254e-05
1.36475e-05
1.35254e-05
1.36475e-05
1.35254e-05
1.3623e-05
1.3501e-05
1.3623e-05
1.3501e-05
1.3623e-05
1.3501e-05
1.3623e-05
1.3501e-05
1.3623e-05
1.3501e-05
1.3623e-05
1.34766e-05
1.3623e-05
1.34766e-05
1.35986e-05
1.34766e-05
1.35986e-05
1.34766e-05
1.35742e-05
1.34521e-05
1.35742e-05
1.34521e-05
1.35742e-05
1.34521e-05
1.35742e-05
1.34521e-05
1.35742e-05
1.34521e-05
1.35742e-05
1.34521e-05
1.35498e-05
1.34521e-05
1.35498e-05
1.34277e-05
1.35498e-05
1.34521e-05
1.35498e-05
1.34277e-05
1.35498e-05
1.34277e-05
1.35498e-05
1.34277e-05
1.35254e-05
1.34277e-05
1.35254e-05
1.34277e-05
1.35254e-05
1.34033e-05
1.35254e-05
1.34033e-05
1.3501e-05
1.34033e-05
1.3501e-05
1.33789e-05
1.3501e-05
1.33789e-05
1.3501e-05
1.33789e-05
1.3501e-05
1.33789e-05
1.34766e-05
1.33789e-05
1.34766e-05
1.33789e-05
1.34766e-05
1.33545e-05
1.34766e-05
1.33545e-05
1.34766e-05
1.33545e-05
1.34766e-05
1.33545e-05
1.34521e-05
1.33545e-05
1.34521e-05
1.33545e-05
1.34521e-05
1.33545e-05
1.34521e-05
1.33545e-05
1.34521e-05
1.33301e-05
1.34277e-05
1.33301e-05
1.34521e-05
1.33301e-05
1.34277e-05
1.33301e-05
1.34277e-05
1.33301e-05
1.34277e-05
1.33301e-05
1.34277e-05
1.33057e-05
1.34033e-05
1.33057e-05
1.34277e-05
1.33057e-05
1.34033e-05
1.33057e-05
1.34033e-05
1.33057e-05
1.34033e-05
1.33057e-05
1.34033e-05
1.33057e-05
1.33789e-05
1.32812e-05
1.34033e-05
1.32812e-05
1.33789e-05
1.32812e-05
1.33789e-05
1.32812e-05
1.33789e-05
1.32812e-05
1.33789e-05
1.32812e-05
1.33545e-05
1.32812e-05
1.33789e-05
1.32568e-05
1.33545e-05
1.32568e-05
1.33789e-05
1.32568e-05
1.33545e-05
1.32568e-05
1.33545e-05
1.32568e-05
1.33545e-05
1.32568e-05
1.33545e-05
1.32568e-05
1.33545e-05
1.32568e-05
1.33545e-05
1.32568e-05
1.33545e-05
1.32568e-05
1.33545e-05
1.32568e-05
1.33301e-05
1.32568e-05
1.33545e-05
1.32568e-05
1.33545e-05
1.32568e-05
1.33545e-05
1.32568e-05
1.33545e-05
1.32568e-05
1.33545e-05
1.32568e-05
1.33545e-05
1.32568e-05
1.33545e-05
1.32568e-05
1.33545e-05
1.32568e-05
1.33545e-05
1.32568e-05
1.33545e-05
1.32568e-05
1.33545e-05
1.32812e-05
1.33789e-05
1.32812e-05
1.33789e-05
1.32812e-05
1.33789e-05
1.32812e-05
1.33789e-05
1.32812e-05
1.33789e-05
1.32812e-05
1.34033e-05
1.33057e-05
1.34033e-05
1.33057e-05
1.34033e-05
1.33301e-05
1.34277e-05
1.33057e-05
1.34277e-05
1.33301e-05
1.34277e-05
1.33301e-05
1.34277e-05
1.33545e-05
1.34521e-05
1.33545e-05
1.34521e-05
1.33545e-05
1.34521e-05
1.33545e-05
1.34766e-05
1.33789e-05
1.34766e-05
1.33789e-05
1.3501e-05
1.34033e-05
1.34766e-05
1.34033e-05
1.3501e-05
1.34277e-05
1.3501e-05
1.34277e-05
1.35254e-05
1.34277e-05
1.35254e-05
1.34521e-05
1.35498e-05
1.34521e-05
1.35498e-05
1.34521e-05
1.35498e-05
1.34521e-05
1.35498e-05
1.34766e-05
1.35742e-05
1.34766e-05
1.35742e-05
1.3501e-05
1.35986e-05
1.3501e-05
1.35986e-05
1.3501e-05
1.3623e-05
1.35254e-05
1.3623e-05
1.35254e-05
1.3623e-05
1.35498e-05
1.3623e-05
1.35498e-05
1.36475e-05
1.35742e-05
1.36475e-05
1.35742e-05
1.36719e-05
1.35742e-05
1.36719e-05
1.35742e-05
1.36719e-05
1.35742e-05
1.36719e-05
1.35986e-05
1.36719e-05
1.35986e-05
1.36719e-05
1.3623e-05
1.36963e-05
1.3623e-05
1.36963e-05
1.3623e-05
1.37207e-05
1.3623e-05
1.37207e-05
1.36475e-05
1.37207e-05
1.36475e-05
1.37451e-05
1.36475e-05
1.37451e-05
1.36475e-05
1.37451e-05
1.36719e-05
1.37451e-05
1.36719e-05
1.37451e-05
1.36719e-05
1.37695e-05
1.36963e-05
1.37695e-05
1.36963e-05
1.37939e-05
1.36963e-05
1.37939e-05
1.37207e-05
1.38184e-05
1.37207e-05
1.38184e-05
1.37207e-05
1.38184e-05
1.37451e-05
1.38184e-05
1.37451e-05
1.38428e-05
1.37451e-05
1.38428e-05
1.37451e-05
1.38428e-05
1.37451e-05
1.38428e-05
1.37451e-05
1.38428e-05
1.37451e-05
1.38428e-05
1.37451e-05
1.38672e-05
1.37695e-05
1.38672e-05
1.37695e-05
1.38672e-05
1.37695e-05
1.38672e-05
1.37695e-05
1.38672e-05
1.37695e-05
1.38672e-05
1.37695e-05
1.38672e-05
1.37695e-05
1.38672e-05
1.37939e-05
1.38672e-05
1.37939e-05
1.38672e-05
1.37939e-05
1.38916e-05
1.37939e-05
1.38672e-05
1.37939e-05
1.38916e-05
1.37939e-05
1.38672e-05
1.37939e-05
1.38916e-05
1.37939e-05
1.38672e-05
1.38184e-05
1.38916e-05
1.37939e-05
1.38672e-05
1.37939e-05
1.38916e-05
1.38184e-05
1.38672e-05
1.38184e-05
1.38916e-05
1.38184e-05
1.38672e-05
1.37939e-05
1.38916e-05
1.38184e-05
1.38672e-05
1.37939e-05
1.38672e-05
1.37939e-05
1.38672e-05
1.37939e-05
1.38916e-05
1.38184e-05
1.38672e-05
1.37939e-05
1.38672e-05
1.37939e-05
1.38672e-05
1.37939e-05
1.38916e-05
1.37939e-05
1.38672e-05
1.37939e-05
1.38916e-05
1.37939e-05
1.38672e-05
1.37939e-05
1.38672e-05
1.37939e-05
1.38672e-05
1.37939e-05
1.38672e-05
1.37939e-05
1.38672e-05
1.37939e-05
1.38672e-05
1.37939e-05
1.38672e-05
1.37939e-05
1.38672e-05
1.37939e-05
1.38672e-05
1.37695e-05
1.38672e-05
1.37939e-05
1.38672e-05
1.37695e-05
1.38672e-05
1.37695e-05
1.38428e-05
1.37695e-05
1.38428e-05
1.37695e-05
1.38428e-05
1.37451e-05
1.38428e-05
1.37451e-05
1.38184e-05
1.37451e-05
1.38428e-05
1.37451e-05
1.38184e-05
1.37451e-05
1.38184e-05
1.37451e-05
1.38184e-05
1.37451e-05
1.38184e-05
1.37451e-05
1.37939e-05
1.37207e-05
1.38184e-05
1.37207e-05
1.37939e-05
1.37207e-05
1.37939e-05
1.37207e-05
1.37939e-05
1.36963e-05
1.37939e-05
1.36963e-05
1.37695e-05
1.36963e-05
1.37695e-05
1.36963e-05
1.37695e-05
1.36963e-05
1.37695e-05
1.36719e-05
1.37451e-05
1.36719e-05
1.37451e-05
1.36719e-05
1.37451e-05
1.36719e-05
1.37451e-05
1.36719e-05
1.37207e-05
1.36719e-05
1.37451e-05
1.36475e-05
1.37207e-05
1.36475e-05
1.37207e-05
1.36475e-05
1.37207e-05
1.3623e-05
1.37207e-05
1.3623e-05
1.36963e-05
1.3623e-05
1.36963e-05
1.3623e-05
1.36963e-05
1.3623e-05
1.36963e-05
1.35986e-05
1.36719e-05
1.35986e-05
1.36719e-05
1.35986e-05
1.36719e-05
1.35986e-05
1.36719e-05
1.35986e-05
1.36719e-05
1.35742e-05
1.36475e-05
1.35742e-05
1.36475e-05
1.35742e-05
1.36475e-05
1.35742e-05
1.36475e-05
1.35498e-05
1.36475e-05
1.35498e-05
1.3623e-05
1.35498e-05
1.3623e-05
1.35498e-05
1.3623e-05
1.35498e-05
1.3623e-05
1.35498e-05
1.35986e-05
1.35498e-05
1.3623e-05
1.35254e-05
1.35986e-05
1.35498e-05
1.35986e-05
1.35254e-05
1.35986e-05
1.35254e-05
1.35986e-05
1.35254e-05
1.35742e-05
1.35254e-05
1.35986e-05
1.35254e-05
1.35742e-05
1.3501e-05
1.35742e-05
1.3501e-05
1.35742e-05
1.3501e-05
1.35986e-05
1.3501e-05
1.35742e-05
1.35254e-05
1.35742e-05
1.3501e-05
1.35742e-05
1.3501e-05
1.35742e-05
1.3501e-05
1.35742e-05
1.3501e-05
1.35986e-05
1.35254e-05
1.35742e-05
1.35254e-05
1.35986e-05
1.35254e-05
1.35986e-05
1.35254e-05
1.35986e-05
1.35254e-05
1.35986e-05
1.35498e-05
1.3623e-05
1.35498e-05
1.3623e-05
1.35498e-05
1.3623e-05
1.35498e-05
1.3623e-05
1.35498e-05
1.36475e-05
1.35742e-05
1.36475e-05
1.35742e-05
1.36475e-05
1.35742e-05
1.36475e-05
1.35742e-05
1.36475e-05
1.35742e-05
1.36719e-05
1.35986e-05
1.36719e-05
1.35986e-05
1.36719e-05
1.35986e-05
1.36719e-05
1.3623e-05
1.36719e-05
1.3623e-05
1.36963e-05
1.3623e-05
1.36963e-05
1.36475e-05
1.36963e-05
1.36475e-05
1.36963e-05
1.36475e-05
1.37207e-05
1.36475e-05
1.37207e-05
1.36475e-05
1.37451e-05
1.36719e-05
1.37451e-05
1.36719e-05
1.37451e-05
1.36719e-05
1.37451e-05
1.36719e-05
1.37451e-05
1.36963e-05
1.37695e-05
1.36963e-05
1.37695e-05
1.36963e-05
1.37695e-05
1.36963e-05
1.37695e-05
1.37207e-05
1.37695e-05
1.37207e-05
1.37939e-05
1.37207e-05
1.37939e-05
1.37207e-05
1.38184e-05
1.37451e-05
1.38184e-05
1.37451e-05
1.38184e-05
1.37451e-05
1.38184e-05
1.37451e-05
1.38184e-05
1.37451e-05
1.38184e-05
1.37451e-05
1.38428e-05
1.37695e-05
1.38428e-05
1.37695e-05
1.38428e-05
1.37695e-05
1.38428e-05
1.37695e-05
1.38672e-05
1.37695e-05
1.38428e-05
1.37695e-05
1.38672e-05
1.37695e-05
1.38672e-05
1.37695e-05
1.38672e-05
1.37695e-05
1.38672e-05
1.37939e-05
1.38672e-05
1.37939e-05
1.38672e-05
1.37939e-05
1.38672e-05
1.37939e-05
1.38672e-05
1.37939e-05
1.38672e-05
1.38184e-05
1.38672e-05
1.38184e-05
1.38672e-05
1.38184e-05
1.38672e-05
1.38184e-05
1.38672e-05
1.38184e-05
1.38672e-05
1.38184e-05
1.38916e-05
1.38184e-05
1.38672e-05
1.38184e-05
1.38916e-05
1.38184e-05
1.38672e-05
1.38184e-05
1.38672e-05
1.38184e-05
1.38672e-05
1.38184e-05
1.38916e-05
1.38184e-05
1.38916e-05
1.38184e-05
1.38916e-05
1.38184e-05
1.38916e-05
1.38184e-05
1.38916e-05
1.38184e-05
1.38672e-05
1.38184e-05
1.38916e-05
1.38184e-05
1.38916e-05
1.38184e-05
1.38672e-05
1.38184e-05
1.38672e-05
1.38184e-05
1.38916e-05
1.38184e-05
1.38672e-05
1.38184e-05
1.38916e-05
1.38184e-05
1.38672e-05
1.38184e-05
1.38672e-05
1.38184e-05
1.38672e-05
1.38184e-05
1.38916e-05
1.38184e-05
1.38672e-05
1.38184e-05
1.38672e-05
1.38184e-05
1.38672e-05
1.37939e-05
1.38672e-05
1.37939e-05
1.38672e-05
1.37939e-05
1.38672e-05
1.37939e-05
1.38672e-05
1.38184e-05
1.38672e-05
1.38184e-05
1.38672e-05
1.38184e-05
1.38672e-05
1.38184e-05
1.38672e-05
1.37939e-05
1.38672e-05
1.38184e-05
1.38672e-05
1.38184e-05
1.38672e-05
1.38184e-05
1.38672e-05
1.38184e-05
1.38916e-05
1.38184e-05
1.38672e-05
1.38184e-05
1.38672e-05
1.38184e-05
1.38672e-05
1.38184e-05
1.38916e-05
1.38184e-05
1.38672e-05
1.38184e-05
1.38916e-05
1.38184e-05
1.38672e-05
1.38184e-05
1.38916e-05
1.38184e-05
1.38916e-05
1.38184e-05
1.38916e-05
1.38184e-05
1.38672e-05
1.38184e-05
1.38916e-05
1.38184e-05
1.38916e-05
1.38428e-05
1.38916e-05
1.38184e-05
1.38916e-05
1.38428e-05
1.38916e-05
1.38428e-05
1.38916e-05
1.38428e-05
1.38916e-05
1.38428e-05
1.38916e-05
1.38428e-05
1.38916e-05
1.38428e-05
1.38916e-05
1.38428e-05
1.38916e-05
1.38428e-05
1.38916e-05
1.38428e-05
1.38916e-05
1.38428e-05
1.38916e-05
1.38428e-05
1.3916e-05
1.38428e-05
1.3916e-05
1.38672e-05
1.3916e-05
1.38672e-05
1.3916e-05
1.38672e-05
1.3916e-05
1.38672e-05
1.3916e-05
1.38672e-05
1.3916e-05
1.38672e-05
1.3916e-05
1.38672e-05
1.3916e-05
1.38672e-05
1.3916e-05
1.38672e-05
1.39404e-05
1.38672e-05
1.3916e-05
1.38672e-05
1.39404e-05
1.38672e-05
1.3916e-05
1.38672e-05
1.3916e-05
1.38672e-05
1.3916e-05
1.38672e-05
1.39404e-05
1.38672e-05
1.3916e-05
1.38672e-05
1.39404e-05
1.38672e-05
1.39404e-05
1.38672e-05
1.3916e-05
1.38672e-05
1.3916e-05
1.38672e-05
1.39404e-05
1.38672e-05
1.3916e-05
1.38672e-05
1.3916e-05
1.38672e-05
1.3916e-05
1.38672e-05
1.3916e-05
1.38672e-05
1.39404e-05
1.38672e-05
1.39404e-05
1.38672e-05
1.3916e-05
1.38672e-05
1.3916e-05
1.38672e-05
1.3916e-05
1.38672e-05
1.3916e-05
1.38672e-05
1.3916e-05
1.38672e-05
1.3916e-05
1.38672e-05
1.3916e-05
1.38672e-05
1.3916e-05
1.38672e-05
1.3916e-05
1.38672e-05
1.3916e-05
1.38672e-05
1.3916e-05
1.38672e-05
1.3916e-05
1.38672e-05
1.38916e-05
1.38428e-05
1.38916e-05
1.38428e-05
1.38916e-05
1.38428e-05
1.38916e-05
1.38428e-05
1.38916e-05
1.38428e-05
1.38916e-05
1.38428e-05
1.38916e-05
1.38428e-05
1.38916e-05
1.38428e-05
1.38916e-05
1.38428e-05
1.38916e-05
1.38428e-05
1.38672e-05
1.38184e-05
1.38672e-05
1.38428e-05
1.38672e-05
1.38184e-05
1.38672e-05
1.38184e-05
1.38672e-05
1.38184e-05
1.38672e-05
1.38184e-05
1.38672e-05
1.38184e-05
1.38672e-05
1.38184e-05
1.38672e-05
1.38184e-05
1.38672e-05
1.37939e-05
1.38428e-05
1.37939e-05
1.38428e-05
1.37939e-05
1.38428e-05
1.37939e-05
1.38428e-05
1.37939e-05
1.38428e-05
1.37939e-05
1.38428e-05
1.37695e-05
1.38428e-05
1.37695e-05
1.38184e-05
1.37695e-05
1.38184e-05
1.37695e-05
1.38184e-05
1.37695e-05
1.38184e-05
1.37451e-05
1.38184e-05
1.37451e-05
1.38184e-05
1.37451e-05
1.37939e-05
1.37451e-05
1.37939e-05
1.37451e-05
1.37939e-05
1.37451e-05
1.37939e-05
1.37451e-05
1.37939e-05
1.37451e-05
1.37695e-05
1.37207e-05
1.37695e-05
1.37207e-05
1.37695e-05
1.37207e-05
1.37695e-05
1.37207e-05
1.37695e-05
1.37207e-05
1.37695e-05
1.36963e-05
1.37451e-05
1.36963e-05
1.37451e-05
1.36963e-05
1.37451e-05
1.36963e-05
1.37451e-05
1.36963e-05
1.37451e-05
1.36963e-05
1.37451e-05
1.36719e-05
1.37207e-05
1.36719e-05
1.37207e-05
1.36719e-05
1.37207e-05
1.36719e-05
1.37207e-05
1.36719e-05
1.36963e-05
1.36719e-05
1.37207e-05
1.36475e-05
1.36963e-05
1.36475e-05
1.36963e-05
1.36475e-05
1.36963e-05
1.36475e-05
1.36963e-05
1.36475e-05
1.36719e-05
1.3623e-05
1.36719e-05
1.3623e-05
1.36719e-05
1.3623e-05
1.36719e-05
1.3623e-05
1.36719e-05
1.3623e-05
1.36475e-05
1.3623e-05
1.36475e-05
1.35986e-05
1.36475e-05
1.35986e-05
1.36475e-05
1.35986e-05
1.36475e-05
1.35986e-05
1.36475e-05
1.35986e-05
1.36475e-05
1.35986e-05
1.3623e-05
1.35742e-05
1.3623e-05
1.35742e-05
1.3623e-05
1.35742e-05
1.3623e-05
1.35742e-05
1.3623e-05
1.35742e-05
1.3623e-05
1.35498e-05
1.35986e-05
1.35498e-05
1.35986e-05
1.35498e-05
1.35986e-05
1.35498e-05
1.35986e-05
1.35498e-05
1.35742e-05
1.35498e-05
1.35742e-05
1.35254e-05
1.35742e-05
1.35254e-05
1.35742e-05
1.35254e-05
1.35742e-05
1.35254e-05
1.35742e-05
1.35254e-05
1.35742e-05
1.3501e-05
1.35498e-05
1.3501e-05
1.35498e-05
1.3501e-05
1.35498e-05
1.3501e-05
1.35498e-05
1.34766e-05
1.35498e-05
1.34766e-05
1.35254e-05
1.34766e-05
1.35254e-05
1.34766e-05
1.3501e-05
1.34766e-05
1.35254e-05
1.34521e-05
1.3501e-05
1.34521e-05
1.3501e-05
1.34521e-05
1.3501e-05
1.34521e-05
1.3501e-05
1.34521e-05
1.34766e-05
1.34521e-05
1.34766e-05
1.34521e-05
1.34766e-05
1.34521e-05
1.34766e-05
1.34277e-05
1.34766e-05
1.34277e-05
1.34766e-05
1.34277e-05
1.34521e-05
1.34277e-05
1.34521e-05
1.34277e-05
1.34521e-05
1.34033e-05
1.34521e-05
1.34033e-05
1.34521e-05
1.34033e-05
1.34521e-05
1.34033e-05
1.34521e-05
1.33789e-05
1.34277e-05
1.33789e-05
1.34277e-05
1.34033e-05
1.34277e-05
1.33789e-05
1.34277e-05
1.33789e-05
1.34277e-05
1.33789e-05
1.34033e-05
1.33789e-05
1.34277e-05
1.33789e-05
1.34033e-05
1.33545e-05
1.34033e-05
1.33545e-05
1.34033e-05
1.33545e-05
1.34033e-05
1.33545e-05
1.34033e-05
1.33545e-05
1.33789e-05
1.33545e-05
1.33789e-05
1.33545e-05
1.33789e-05
1.33545e-05
1.33789e-05
1.33301e-05
1.33789e-05
1.33301e-05
1.33789e-05
1.33301e-05
1.33789e-05
1.33301e-05
1.33545e-05
1.33301e-05
1.33545e-05
1.33057e-05
1.33545e-05
1.33057e-05
1.33545e-05
1.33057e-05
1.33545e-05
1.33057e-05
1.33545e-05
1.33057e-05
1.33301e-05
1.33057e-05
1.33545e-05
1.33057e-05
1.33301e-05
1.33057e-05
1.33301e-05
1.32812e-05
1.33301e-05
1.32812e-05
1.33301e-05
1.32812e-05
1.33301e-05
1.32812e-05
1.33301e-05
1.32812e-05
1.33057e-05
1.32812e-05
1.33057e-05
1.32812e-05
1.33057e-05
1.32568e-05
1.33057e-05
1.32568e-05
1.33057e-05
1.32568e-05
1.33057e-05
1.32568e-05
1.33057e-05
1.32568e-05
1.33057e-05
1.32568e-05
1.33057e-05
1.32568e-05
1.33057e-05
1.32568e-05
1.32812e-05
1.32568e-05
1.32812e-05
1.32568e-05
1.32812e-05
1.32568e-05
1.32812e-05
1.32568e-05
1.32812e-05
1.32324e-05
1.32568e-05
1.32324e-05
1.32568e-05
1.32324e-05
1.32568e-05
1.32324e-05
1.32568e-05
1.32324e-05
1.32568e-05
1.32324e-05
1.32568e-05
1.3208e-05
1.32568e-05
1.32324e-05
1.32568e-05
1.3208e-05
1.32568e-05
1.3208e-05
1.32568e-05
1.3208e-05
1.32568e-05
1.3208e-05
1.32568e-05
1.3208e-05
1.32568e-05
1.3208e-05
1.32568e-05
1.3208e-05
1.32324e-05
1.31836e-05
1.32324e-05
1.31836e-05
1.32324e-05
1.31836e-05
1.32324e-05
1.31836e-05
1.32324e-05
1.31836e-05
1.32324e-05
1.31836e-05
1.3208e-05
1.31836e-05
1.32324e-05
1.31836e-05
1.3208e-05
1.31836e-05
1.3208e-05
1.31836e-05
1.3208e-05
1.31836e-05
1.3208e-05
1.31836e-05
1.3208e-05
1.31592e-05
1.3208e-05
1.31592e-05
1.3208e-05
1.31592e-05
1.3208e-05
1.31836e-05
1.3208e-05
1.31592e-05
1.3208e-05
1.31592e-05
1.31836e-05
1.31592e-05
1.31836e-05
1.31592e-05
1.3208e-05
1.31592e-05
1.31836e-05
1.31592e-05
1.31836e-05
1.31592e-05
1.31836e-05
1.31348e-05
1.31836e-05
1.31592e-05
1.31836e-05
1.31592e-05
1.31836e-05
1.31592e-05
1.31836e-05
1.31592e-05
1.31836e-05
1.31348e-05
1.31836e-05
1.31348e-05
1.31836e-05
1.31348e-05
1.31836e-05
1.31348e-05
1.31836e-05
1.31348e-05
1.31592e-05
1.31348e-05
1.31592e-05
1.31348e-05
1.31592e-05
1.31348e-05
1.31836e-05
1.31348e-05
1.31592e-05
1.31348e-05
1.31592e-05
1.31348e-05
1.31592e-05
1.31348e-05
1.31592e-05
1.31348e-05
1.31592e-05
1.31348e-05
1.31592e-05
1.31104e-05
1.31592e-05
1.31348e-05
1.31592e-05
1.31104e-05
1.31592e-05
1.31348e-05
1.31592e-05
1.31348e-05
1.31592e-05
1.31348e-05
1.31592e-05
1.31104e-05
1.31592e-05
1.31104e-05
1.31592e-05
1.31104e-05
1.31592e-05
1.31104e-05
1.31592e-05
1.31104e-05
1.31592e-05
1.31104e-05
1.31592e-05
1.31104e-05
1.31592e-05
1.31104e-05
1.31592e-05
1.31104e-05
1.31592e-05
1.31104e-05
1.31592e-05
1.31104e-05
1.31348e-05
1.31104e-05
1.31592e-05
1.31104e-05
1.31348e-05
1.31104e-05
1.31592e-05
1.31104e-05
1.31348e-05
1.31104e-05
1.31592e-05
1.31104e-05
1.31348e-05
1.31104e-05
1.31348e-05
1.31104e-05
1.31348e-05
1.31104e-05
1.31592e-05
1.31104e-05
1.31348e-05
1.31104e-05
1.31348e-05
1.30859e-05
1.31348e-05
1.30859e-05
1.31348e-05
1.31104e-05
1.31348e-05
1.31104e-05
1.31348e-05
1.30859e-05
1.31348e-05
1.30859e-05
1.31348e-05
1.31104e-05
1.31348e-05
1.31104e-05
1.31348e-05
1.31104e-05
1.31348e-05
1.31104e-05
1.31348e-05
1.31104e-05
1.31348e-05
1.31104e-05
1.31348e-05
1.31104e-05
1.31348e-05
1.31104e-05
1.31348e-05
1.31104e-05
1.31348e-05
1.31104e-05
1.31592e-05
1.31104e-05
1.31592e-05
1.31104e-05
1.31592e-05
1.31104e-05
1.31592e-05
1.31348e-05
1.31592e-05
1.31348e-05
1.31592e-05
1.31348e-05
1.31836e-05
1.31348e-05
1.31836e-05
1.31348e-05
1.31836e-05
1.31592e-05
1.31836e-05
1.31592e-05
1.31836e-05
1.31592e-05
1.31836e-05
1.31592e-05
1.3208e-05
1.31836e-05
1.31836e-05
1.31592e-05
1.31836e-05
1.31836e-05
1.3208e-05
1.31836e-05
1.3208e-05
1.31836e-05
1.3208e-05
1.31836e-05
1.32324e-05
1.3208e-05
1.32324e-05
1.31836e-05
1.32324e-05
1.3208e-05
1.32324e-05
1.3208e-05
1.32568e-05
1.3208e-05
1.32568e-05
1.32324e-05
1.32568e-05
1.32324e-05
1.32568e-05
1.32324e-05
1.32568e-05
1.32324e-05
1.32568e-05
1.32324e-05
1.32568e-05
1.32568e-05
1.32568e-05
1.32568e-05
1.32812e-05
1.32568e-05
1.32812e-05
1.32568e-05
1.32812e-05
1.32568e-05
1.33057e-05
1.32568e-05
1.32812e-05
1.32568e-05
1.33057e-05
1.32568e-05
1.33057e-05
1.32568e-05
1.33057e-05
1.32812e-05
1.33057e-05
1.32812e-05
1.33057e-05
1.32812e-05
1.33057e-05
1.32812e-05
1.33057e-05
1.33057e-05
1.33301e-05
1.33057e-05
1.33301e-05
1.33057e-05
1.33301e-05
1.33057e-05
1.33301e-05
1.33057e-05
1.33545e-05
1.33057e-05
1.33301e-05
1.33057e-05
1.33545e-05
1.33057e-05
1.33301e-05
1.33057e-05
1.33545e-05
1.33057e-05
1.33545e-05
1.33057e-05
1.33545e-05
1.33057e-05
1.33545e-05
1.33301e-05
1.33545e-05
1.33301e-05
1.33545e-05
1.33301e-05
1.33545e-05
1.33301e-05
1.33545e-05
1.33301e-05
1.33789e-05
1.33545e-05
1.33789e-05
1.33545e-05
1.33789e-05
1.33545e-05
1.33789e-05
1.33545e-05
1.33789e-05
1.33545e-05
1.34033e-05
1.33545e-05
1.33789e-05
1.33545e-05
1.34033e-05
1.33789e-05
1.34033e-05
1.33789e-05
1.34033e-05
1.33789e-05
1.34277e-05
1.33789e-05
1.34033e-05
1.33789e-05
1.34277e-05
1.33789e-05
1.34277e-05
1.34033e-05
1.34277e-05
1.34033e-05
1.34277e-05
1.34033e-05
1.34277e-05
1.34033e-05
1.34277e-05
1.34033e-05
1.34521e-05
1.34277e-05
1.34521e-05
1.34277e-05
1.34521e-05
1.34277e-05
1.34521e-05
1.34277e-05
1.34521e-05
1.34277e-05
1.34521e-05
1.34277e-05
1.34521e-05
1.34521e-05
1.34521e-05
1.34521e-05
1.34521e-05
1.34521e-05
1.34766e-05
1.34521e-05
1.34766e-05
1.34521e-05
1.34521e-05
1.34521e-05
1.34766e-05
1.34521e-05
1.34521e-05
1.34521e-05
1.34766e-05
1.34521e-05
1.3501e-05
1.34521e-05
1.34766e-05
1.34521e-05
1.3501e-05
1.34521e-05
1.3501e-05
1.34521e-05
1.34766e-05
1.34766e-05
1.3501e-05
1.34766e-05
1.3501e-05
1.34766e-05
1.3501e-05
1.34766e-05
1.3501e-05
1.34766e-05
1.3501e-05
1.34766e-05
1.3501e-05
1.34766e-05
1.3501e-05
1.34766e-05
1.3501e-05
1.34766e-05
1.3501e-05
1.34766e-05
1.3501e-05
1.34766e-05
1.35254e-05
1.34766e-05
1.3501e-05
1.3501e-05
1.35254e-05
1.34766e-05
1.35254e-05
1.3501e-05
1.3501e-05
1.34766e-05
1.3501e-05
1.3501e-05
1.35254e-05
1.34766e-05
1.3501e-05
1.3501e-05
1.3501e-05
1.3501e-05
1.35254e-05
1.34766e-05
1.35254e-05
1.34766e-05
1.3501e-05
1.34766e-05
1.3501e-05
1.3501e-05
1.35254e-05
1.34766e-05
1.35254e-05
1.34766e-05
1.3501e-05
1.34766e-05
1.3501e-05
1.34766e-05
1.35254e-05
1.34766e-05
1.3501e-05
1.3501e-05
1.3501e-05
1.34766e-05
1.3501e-05
1.34766e-05
1.3501e-05
1.34766e-05
1.3501e-05
1.3501e-05
1.3501e-05
1.34766e-05
1.3501e-05
1.34766e-05
1.3501e-05
1.34766e-05
1.3501e-05
1.34766e-05
1.3501e-05
1.34766e-05
1.3501e-05
1.34766e-05
1.3501e-05
1.34766e-05
1.3501e-05
1.34766e-05
1.3501e-05
1.34766e-05
1.3501e-05
1.34521e-05
1.34766e-05
1.34521e-05
1.34766e-05
1.34521e-05
1.34766e-05
1.34521e-05
1.34766e-05
1.34521e-05
1.34766e-05
1.34521e-05
1.34766e-05
1.34521e-05
1.34766e-05
1.34521e-05
1.34766e-05
1.34521e-05
1.34766e-05
1.34521e-05
1.34766e-05
1.34521e-05
1.34521e-05
1.34521e-05
1.34766e-05
1.34521e-05
1.34766e-05
1.34521e-05
1.34521e-05
1.34521e-05
1.34521e-05
1.34521e-05
1.34766e-05
1.34521e-05
1.34521e-05
1.34521e-05
1.34521e-05
1.34521e-05
1.34521e-05
1.34521e-05
1.34521e-05
1.34277e-05
1.34521e-05
1.34277e-05
1.34521e-05
1.34277e-05
1.34521e-05
1.34277e-05
1.34521e-05
1.34277e-05
1.34521e-05
1.34277e-05
1.34521e-05
1.34277e-05
1.34521e-05
1.34277e-05
1.34521e-05
1.34277e-05
1.34521e-05
1.34277e-05
1.34277e-05
1.34277e-05
1.34521e-05
1.34277e-05
1.34277e-05
1.34033e-05
1.34521e-05
1.34033e-05
1.34277e-05
1.34033e-05
1.34277e-05
1.34033e-05
1.34277e-05
1.34033e-05
1.34277e-05
1.34033e-05
1.34277e-05
1.34033e-05
1.34277e-05
1.34033e-05
1.34277e-05
1.34033e-05
1.34033e-05
1.33789e-05
1.34277e-05
1.33789e-05
1.34277e-05
1.33789e-05
1.34033e-05
1.33789e-05
1.34033e-05
1.33789e-05
1.34033e-05
1.33789e-05
1.34033e-05
1.33789e-05
1.34033e-05
1.33789e-05
1.34033e-05
1.33789e-05
1.33789e-05
1.33789e-05
1.33789e-05
1.33545e-05
1.33789e-05
1.33545e-05
1.33789e-05
1.33545e-05
1.33789e-05
1.33545e-05
1.33789e-05
1.33545e-05
1.33789e-05
1.33545e-05
1.33789e-05
1.33545e-05
1.33789e-05
1.33545e-05
1.33789e-05
1.33545e-05
1.33789e-05
1.33545e-05
1.33545e-05
1.33545e-05
1.33545e-05
1.33545e-05
1.33545e-05
1.33301e-05
1.33545e-05
1.33301e-05
1.33545e-05
1.33301e-05
1.33545e-05
1.33301e-05
1.33545e-05
1.33301e-05
1.33545e-05
1.33301e-05
1.33301e-05
1.33301e-05
1.33545e-05
1.33057e-05
1.33301e-05
1.33057e-05
1.33301e-05
1.33057e-05
1.33301e-05
1.33057e-05
1.33301e-05
1.33057e-05
1.33301e-05
1.33057e-05
1.33301e-05
1.33057e-05
1.33057e-05
1.33057e-05
1.33057e-05
1.33057e-05
1.33057e-05
1.32812e-05
1.33057e-05
1.32812e-05
1.33057e-05
1.32812e-05
1.33057e-05
1.32812e-05
1.33057e-05
1.32812e-05
1.33057e-05
1.32812e-05
1.32812e-05
1.32812e-05
1.33057e-05
1.32812e-05
1.32812e-05
1.32568e-05
1.32812e-05
1.32568e-05
1.32812e-05
1.32568e-05
1.32812e-05
1.32568e-05
1.32812e-05
1.32568e-05
1.32812e-05
1.32568e-05
1.32568e-05
1.32568e-05
1.32812e-05
1.32568e-05
1.32568e-05
1.32568e-05
1.32568e-05
1.32568e-05
1.32568e-05
1.32568e-05
1.32568e-05
1.32324e-05
1.32568e-05
1.32324e-05
1.32568e-05
1.32324e-05
1.32568e-05
1.32324e-05
1.32568e-05
1.32324e-05
1.32568e-05
1.32324e-05
1.32568e-05
1.32324e-05
1.32324e-05
1.3208e-05
1.32324e-05
1.32324e-05
1.32324e-05
1.32324e-05
1.32324e-05
1.3208e-05
1.32324e-05
1.3208e-05
1.32324e-05
1.3208e-05
1.32324e-05
1.3208e-05
1.32324e-05
1.3208e-05
1.3208e-05
1.3208e-05
1.3208e-05
1.31836e-05
1.32324e-05
1.31836e-05
1.3208e-05
1.31836e-05
1.3208e-05
1.31836e-05
1.3208e-05
1.31836e-05
1.3208e-05
1.31836e-05
1.3208e-05
1.31836e-05
1.31836e-05
1.31836e-05
1.3208e-05
1.31836e-05
1.31836e-05
1.31592e-05
1.31836e-05
1.31592e-05
1.31836e-05
1.31592e-05
1.31836e-05
1.31592e-05
1.31836e-05
1.31592e-05
1.31836e-05
1.31592e-05
1.31836e-05
1.31348e-05
1.31836e-05
1.31348e-05
1.31592e-05
1.31348e-05
1.31592e-05
1.31348e-05
1.31348e-05
1.31348e-05
1.31592e-05
1.31348e-05
1.31348e-05
1.31104e-05
1.31592e-05
1.31104e-05
1.31348e-05
1.31104e-05
1.31348e-05
1.31104e-05
1.31348e-05
1.31104e-05
1.31348e-05
1.31104e-05
1.31104e-05
1.31104e-05
1.31348e-05
1.31104e-05
1.31104e-05
1.31104e-05
1.31104e-05
1.31104e-05
1.31104e-05
1.31104e-05
1.31104e-05
1.30859e-05
1.31104e-05
1.30859e-05
1.31104e-05
1.30859e-05
1.31104e-05
1.30859e-05
1.31104e-05
1.30859e-05
1.31104e-05
1.30859e-05
1.31104e-05
1.30859e-05
1.31104e-05
1.30859e-05
1.30859e-05
1.30859e-05
1.30859e-05
1.30859e-05
1.30859e-05
1.30859e-05
1.30859e-05
1.30859e-05
1.30859e-05
1.30615e-05
1.30859e-05
1.30615e-05
1.30859e-05
1.30615e-05
1.30859e-05
1.30615e-05
1.30859e-05
1.30615e-05
1.30859e-05
1.30615e-05
1.30859e-05
1.30615e-05
1.30859e-05
1.30615e-05
1.30859e-05
1.30615e-05
1.30859e-05
1.30615e-05
1.30859e-05
1.30615e-05
1.30615e-05
1.30371e-05
1.30615e-05
1.30371e-05
1.30615e-05
1.30371e-05
1.30615e-05
1.30371e-05
1.30615e-05
1.30371e-05
1.30615e-05
1.30371e-05
1.30615e-05
1.30371e-05
1.30615e-05
1.30371e-05
1.30615e-05
1.30371e-05
1.30615e-05
1.30371e-05
1.30371e-05
1.30371e-05
1.30615e-05
1.30371e-05
1.30371e-05
1.30371e-05
1.30615e-05
1.30371e-05
1.30371e-05
1.30371e-05
1.30615e-05
1.30127e-05
1.30371e-05
1.30127e-05
1.30371e-05
1.30127e-05
1.30371e-05
1.30127e-05
1.30371e-05
1.30127e-05
1.30371e-05
1.30127e-05
1.30371e-05
1.30127e-05
1.30371e-05
1.30127e-05
1.30371e-05
1.29883e-05
1.30127e-05
1.30127e-05
1.30371e-05
1.30127e-05
1.30127e-05
1.29883e-05
1.30127e-05
1.29883e-05
1.30127e-05
1.29883e-05
1.30127e-05
1.29883e-05
1.30127e-05
1.29883e-05
1.30127e-05
1.29883e-05
1.29883e-05
1.29883e-05
1.30127e-05
1.29883e-05
1.30127e-05
1.29883e-05
1.30127e-05
1.29883e-05
1.29883e-05
1.29883e-05
1.30127e-05
1.29883e-05
1.29883e-05
1.29883e-05
1.29883e-05
1.29639e-05
1.29883e-05
1.29883e-05
1.29883e-05
1.29639e-05
1.29883e-05
1.29883e-05
1.29883e-05
1.29639e-05
1.29883e-05
1.29639e-05
1.29883e-05
1.29639e-05
1.29883e-05
1.29639e-05
1.29883e-05
1.29639e-05
1.29883e-05
1.29639e-05
1.29883e-05
1.29639e-05
1.29883e-05
1.29639e-05
1.29883e-05
1.29639e-05
1.29639e-05
1.29639e-05
1.29883e-05
1.29639e-05
1.29639e-05
1.29639e-05
1.29639e-05
1.29639e-05
1.29639e-05
1.29639e-05
1.29639e-05
1.29395e-05
1.29639e-05
1.29395e-05
1.29639e-05
1.29395e-05
1.29639e-05
1.29395e-05
1.29639e-05
1.29395e-05
1.29639e-05
1.29395e-05
1.29639e-05
1.29395e-05
1.29639e-05
1.29395e-05
1.29639e-05
1.29395e-05
1.29639e-05
1.29395e-05
1.29639e-05
1.29395e-05
1.29639e-05
1.29395e-05
1.29639e-05
1.29395e-05
1.29639e-05
1.29395e-05
1.29639e-05
1.29395e-05
1.29639e-05
1.2915e-05
1.29639e-05
1.2915e-05
1.29395e-05
1.29395e-05
1.29395e-05
1.2915e-05
1.29395e-05
1.2915e-05
1.29395e-05
1.2915e-05
1.29395e-05
1.2915e-05
1.29395e-05
1.2915e-05
1.29395e-05
1.2915e-05
1.29395e-05
1.2915e-05
1.29395e-05
1.2915e-05
1.29395e-05
1.2915e-05
1.29395e-05
1.2915e-05
1.29395e-05
1.2915e-05
1.29395e-05
1.2915e-05
1.29395e-05
1.2915e-05
1.29395e-05
1.2915e-05
1.29395e-05
1.2915e-05
1.29395e-05
1.2915e-05
1.29395e-05
1.2915e-05
1.29395e-05
1.2915e-05
1.29395e-05
1.2915e-05
1.29395e-05
1.2915e-05
1.29395e-05
1.2915e-05
1.29395e-05
1.2915e-05
1.29395e-05
1.2915e-05
1.29395e-05
1.2915e-05
1.29395e-05
1.2915e-05
1.29395e-05
1.2915e-05
1.29395e-05
1.2915e-05
1.29395e-05
1.2915e-05
1.29395e-05
1.2915e-05
1.29395e-05
1.2915e-05
1.29395e-05
1.2915e-05
1.29395e-05
1.2915e-05
1.29639e-05
1.29395e-05
1.29395e-05
1.29395e-05
1.29395e-05
1.29395e-05
1.29395e-05
1.29395e-05
1.29639e-05
1.29395e-05
1.29639e-05
1.29395e-05
1.29395e-05
1.29395e-05
1.29639e-05
1.29395e-05
1.29395e-05
1.29395e-05
1.29395e-05
1.29395e-05
1.29639e-05
1.29395e-05
1.29639e-05
1.29395e-05
1.29639e-05
1.29395e-05
1.29639e-05
1.29395e-05
1.29639e-05
1.29395e-05
1.29639e-05
1.29395e-05
1.29639e-05
1.29395e-05
1.29639e-05
1.29395e-05
1.29639e-05
1.29395e-05
1.29639e-05
1.29395e-05
1.29639e-05
1.29395e-05
1.29639e-05
1.29395e-05
1.29639e-05
1.29395e-05
1.29639e-05
1.29395e-05
1.29639e-05
1.29395e-05
1.29639e-05
1.29395e-05
1.29639e-05
1.29395e-05
1.29639e-05
1.29395e-05
1.29639e-05
1.29395e-05
1.29639e-05
1.29395e-05
1.29639e-05
1.29395e-05
1.29639e-05
1.29395e-05
1.29639e-05
1.29395e-05
1.29395e-05
1.29395e-05
1.29639e-05
1.29395e-05
1.29639e-05
1.29395e-05
1.29395e-05
1.29395e-05
1.29639e-05
1.29395e-05
1.29639e-05
1.29395e-05
1.29395e-05
1.29395e-05
1.29639e-05
1.29395e-05
1.29639e-05
1.29395e-05
1.29639e-05
1.29395e-05
1.29639e-05
1.29395e-05
1.29639e-05
1.29395e-05
1.29639e-05
1.29395e-05
1.29639e-05
1.29395e-05
1.29639e-05
1.29395e-05
1.29639e-05
1.29395e-05
1.29639e-05
1.2915e-05
1.29639e-05
1.29395e-05
1.29639e-05
1.29395e-05
1.29639e-05
1.2915e-05
1.29639e-05
1.29395e-05
1.29639e-05
1.29395e-05
1.29639e-05
1.29395e-05
1.29639e-05
1.29395e-05
1.29639e-05
1.29395e-05
1.29639e-05
1.29395e-05
1.29639e-05
1.29395e-05
1.29639e-05
1.29395e-05
1.29395e-05
1.29395e-05
1.29639e-05
1.29395e-05
1.29639e-05
1.29395e-05
1.29395e-05
1.29395e-05
1.29639e-05
1.29395e-05
1.29639e-05
1.29395e-05
1.29639e-05
1.29395e-05
1.29639e-05
1.29395e-05
1.29639e-05
1.29395e-05
1.29639e-05
1.29639e-05
1.29639e-05
1.29639e-05
1.29639e-05
1.29639e-05
1.29639e-05
1.29639e-05
1.29639e-05
1.29395e-05
1.29883e-05
1.29639e-05
1.29639e-05
1.29639e-05
1.29883e-05
1.29639e-05
1.29883e-05
1.29639e-05
1.29883e-05
1.29639e-05
1.29883e-05
1.29639e-05
1.29883e-05
1.29883e-05
1.29883e-05
1.29883e-05
1.29883e-05
1.29883e-05
1.29883e-05
1.29883e-05
1.30127e-05
1.29883e-05
1.30127e-05
1.29883e-05
1.30127e-05
1.29883e-05
1.30127e-05
1.29883e-05
1.30127e-05
1.30127e-05
1.30127e-05
1.29883e-05
1.30127e-05
1.30127e-05
1.30371e-05
1.30127e-05
1.30371e-05
1.30127e-05
1.30371e-05
1.30127e-05
1.30371e-05
1.30371e-05
1.30371e-05
1.30371e-05
1.30371e-05
1.30371e-05
1.30615e-05
1.30371e-05
1.30615e-05
1.30371e-05
1.30615e-05
1.30371e-05
1.30615e-05
1.30615e-05
1.30615e-05
1.30371e-05
1.30615e-05
1.30615e-05
1.30859e-05
1.30615e-05
1.30859e-05
1.30615e-05
1.30859e-05
1.30615e-05
1.30859e-05
1.30615e-05
1.30859e-05
1.30859e-05
1.30859e-05
1.30859e-05
1.30859e-05
1.30859e-05
1.31104e-05
1.30859e-05
1.31104e-05
1.30859e-05
1.31104e-05
1.30859e-05
1.31104e-05
1.31104e-05
1.31104e-05
1.31104e-05
1.31348e-05
1.31104e-05
1.31348e-05
1.31104e-05
1.31348e-05
1.31104e-05
1.31348e-05
1.31104e-05
1.31592e-05
1.31104e-05
1.31592e-05
1.31104e-05
1.31592e-05
1.31348e-05
1.31592e-05
1.31348e-05
1.31592e-05
1.31592e-05
1.31592e-05
1.31592e-05
1.31836e-05
1.31592e-05
1.31836e-05
1.31592e-05
1.31836e-05
1.31836e-05
1.31836e-05
1.31592e-05
1.3208e-05
1.31836e-05
1.3208e-05
1.31836e-05
1.3208e-05
1.31836e-05
1.32324e-05
1.3208e-05
1.32324e-05
1.3208e-05
1.32324e-05
1.32324e-05
1.32568e-05
1.32324e-05
1.32324e-05
1.32324e-05
1.32568e-05
1.32324e-05
1.32568e-05
1.32568e-05
1.32568e-05
1.32568e-05
1.32568e-05
1.32568e-05
1.32812e-05
1.32568e-05
1.32812e-05
1.32568e-05
1.33057e-05
1.32812e-05
1.33057e-05
1.32812e-05
1.33301e-05
1.33057e-05
1.33057e-05
1.33057e-05
1.33301e-05
1.33057e-05
1.33301e-05
1.33301e-05
1.33545e-05
1.33301e-05
1.33545e-05
1.33545e-05
1.33545e-05
1.33545e-05
1.33545e-05
1.33545e-05
1.33789e-05
1.33789e-05
1.34033e-05
1.33789e-05
1.34033e-05
1.33789e-05
1.34277e-05
1.34033e-05
1.34277e-05
1.34033e-05
1.34277e-05
1.34277e-05
1.34521e-05
1.34277e-05
1.34277e-05
1.34277e-05
1.34521e-05
1.34521e-05
1.34521e-05
1.34521e-05
1.34766e-05
1.34521e-05
1.3501e-05
1.34766e-05
1.3501e-05
1.34766e-05
1.3501e-05
1.3501e-05
1.35254e-05
1.3501e-05
1.35254e-05
1.3501e-05
1.35254e-05
1.35254e-05
1.35254e-05
1.35254e-05
1.35498e-05
1.35254e-05
1.35742e-05
1.35498e-05
1.35742e-05
1.35498e-05
1.35742e-05
1.35742e-05
1.35742e-05
1.35742e-05
1.35986e-05
1.35742e-05
1.35986e-05
1.35986e-05
1.3623e-05
1.35986e-05
1.3623e-05
1.35986e-05
1.3623e-05
1.35986e-05
1.3623e-05
1.3623e-05
1.36475e-05
1.3623e-05
1.36475e-05
1.3623e-05
1.36475e-05
1.3623e-05
1.36719e-05
1.36475e-05
1.36719e-05
1.36475e-05
1.36719e-05
1.36719e-05
1.36719e-05
1.36719e-05
1.36719e-05
1.36719e-05
1.36719e-05
1.36719e-05
1.36963e-05
1.36719e-05
1.36963e-05
1.36963e-05
1.36963e-05
1.36963e-05
1.37207e-05
1.36963e-05
1.37207e-05
1.36963e-05
1.37207e-05
1.37207e-05
1.37451e-05
1.36963e-05
1.37451e-05
1.37207e-05
1.37451e-05
1.37207e-05
1.37451e-05
1.37207e-05
1.37451e-05
1.37207e-05
1.37451e-05
1.37207e-05
1.37451e-05
1.37451e-05
1.37451e-05
1.37451e-05
1.37695e-05
1.37451e-05
1.37451e-05
1.37451e-05
1.37695e-05
1.37451e-05
1.37695e-05
1.37451e-05
1.37695e-05
1.37451e-05
1.37695e-05
1.37451e-05
1.37695e-05
1.37451e-05
1.37695e-05
1.37451e-05
1.37695e-05
1.37451e-05
1.37695e-05
1.37451e-05
1.37695e-05
1.37451e-05
1.37695e-05
1.37451e-05
1.37695e-05
1.37451e-05
1.37695e-05
1.37451e-05
1.37695e-05
1.37451e-05
1.37695e-05
1.37451e-05
1.37695e-05
1.37451e-05
1.37695e-05
1.37451e-05
1.37695e-05
1.37451e-05
1.37695e-05
1.37451e-05
1.37695e-05
1.37451e-05
1.37695e-05
1.37451e-05
1.37695e-05
1.37451e-05
1.37695e-05
1.37451e-05
1.37451e-05
1.37451e-05
1.37451e-05
1.37451e-05
1.37695e-05
1.37451e-05
1.37451e-05
1.37451e-05
1.37451e-05
1.37207e-05
1.37451e-05
1.37451e-05
1.37451e-05
1.37451e-05
1.37451e-05
1.37207e-05
1.37451e-05
1.37207e-05
1.37451e-05
1.37207e-05
1.37451e-05
1.37207e-05
1.37451e-05
1.37207e-05
1.37451e-05
1.37207e-05
1.37451e-05
1.37207e-05
1.37207e-05
1.36963e-05
1.37207e-05
1.36963e-05
1.37207e-05
1.36963e-05
1.37207e-05
1.36963e-05
1.37207e-05
1.36963e-05
1.36963e-05
1.36719e-05
1.36963e-05
1.36963e-05
1.36963e-05
1.36719e-05
1.36963e-05
1.36719e-05
1.36963e-05
1.36719e-05
1.36963e-05
1.36719e-05
1.36963e-05
1.36475e-05
1.36719e-05
1.36475e-05
1.36719e-05
1.36719e-05
1.36719e-05
1.36475e-05
1.36719e-05
1.36475e-05
1.36719e-05
1.36475e-05
1.36719e-05
1.36475e-05
1.36475e-05
1.36475e-05
1.36475e-05
1.3623e-05
1.36475e-05
1.3623e-05
1.36475e-05
1.3623e-05
1.36475e-05
1.3623e-05
1.3623e-05
1.3623e-05
1.36475e-05
1.35986e-05
1.3623e-05
1.35986e-05
1.3623e-05
1.35742e-05
1.3623e-05
1.35986e-05
1.3623e-05
1.35742e-05
1.35986e-05
1.35742e-05
1.35986e-05
1.35742e-05
1.35742e-05
1.35742e-05
1.35742e-05
1.35742e-05
1.35742e-05
1.35498e-05
1.35742e-05
1.35498e-05
1.35742e-05
1.35498e-05
1.35742e-05
1.35498e-05
1.35742e-05
1.35254e-05
1.35742e-05
1.35254e-05
1.35498e-05
1.35254e-05
1.35498e-05
1.3501e-05
1.35498e-05
1.3501e-05
1.35498e-05
1.3501e-05
1.35254e-05
1.3501e-05
1.35254e-05
1.3501e-05
1.35254e-05
1.3501e-05
1.35254e-05
1.34766e-05
1.3501e-05
1.34766e-05
1.3501e-05
1.34766e-05
1.3501e-05
1.34766e-05
1.3501e-05
1.34521e-05
1.34766e-05
1.34521e-05
1.34766e-05
1.34521e-05
1.34766e-05
1.34521e-05
1.34521e-05
1.34521e-05
1.34521e-05
1.34521e-05
1.34521e-05
1.34277e-05
1.34521e-05
1.34277e-05
1.34521e-05
1.34277e-05
1.34521e-05
1.34277e-05
1.34521e-05
1.34277e-05
1.34521e-05
1.34033e-05
1.34277e-05
1.34033e-05
1.34277e-05
1.34033e-05
1.34277e-05
1.34033e-05
1.34277e-05
1.33789e-05
1.34033e-05
1.33789e-05
1.34033e-05
1.33789e-05
1.34277e-05
1.33789e-05
1.34033e-05
1.33789e-05
1.33789e-05
1.33545e-05
1.33789e-05
1.33545e-05
1.33789e-05
1.33545e-05
1.33789e-05
1.33545e-05
1.33545e-05
1.33301e-05
1.33545e-05
1.33545e-05
1.33545e-05
1.33301e-05
1.33545e-05
1.33301e-05
1.33545e-05
1.33301e-05
1.33545e-05
1.33057e-05
1.33545e-05
1.33057e-05
1.33301e-05
1.33057e-05
1.33301e-05
1.33057e-05
1.33301e-05
1.32812e-05
1.33301e-05
1.32812e-05
1.33057e-05
1.32812e-05
1.33057e-05
1.32812e-05
1.33057e-05
1.32812e-05
1.33057e-05
1.32568e-05
1.32812e-05
1.32568e-05
1.32812e-05
1.32568e-05
1.32812e-05
1.32568e-05
1.32812e-05
1.32568e-05
1.32568e-05
1.32324e-05
1.32568e-05
1.32324e-05
1.32568e-05
1.32324e-05
1.32568e-05
1.32324e-05
1.32568e-05
1.32324e-05
1.32568e-05
1.3208e-05
1.32568e-05
1.3208e-05
1.32324e-05
1.3208e-05
1.32324e-05
1.3208e-05
1.32324e-05
1.3208e-05
1.32324e-05
1.3208e-05
1.32324e-05
1.31836e-05
1.32324e-05
1.31836e-05
1.3208e-05
1.31836e-05
1.3208e-05
1.31836e-05
1.3208e-05
1.31836e-05
1.3208e-05
1.31592e-05
1.31836e-05
1.31592e-05
1.31836e-05
1.31592e-05
1.31836e-05
1.31592e-05
1.31836e-05
1.31592e-05
1.31836e-05
1.31592e-05
1.31592e-05
1.31348e-05
1.31836e-05
1.31348e-05
1.31592e-05
1.31348e-05
1.31592e-05
1.31348e-05
1.31592e-05
1.31348e-05
1.31592e-05
1.31104e-05
1.31592e-05
1.31104e-05
1.31592e-05
1.31104e-05
1.31348e-05
1.31104e-05
1.31592e-05
1.31104e-05
1.31348e-05
1.31104e-05
1.31348e-05
1.31104e-05
1.31104e-05
1.31104e-05
1.31348e-05
1.30859e-05
1.31348e-05
1.30859e-05
1.31104e-05
1.30859e-05
1.31104e-05
1.30859e-05
1.31104e-05
1.30859e-05
1.31104e-05
1.30859e-05
1.31104e-05
1.30615e-05
1.31104e-05
1.30615e-05
1.30859e-05
1.30615e-05
1.30859e-05
1.30615e-05
1.30859e-05
1.30615e-05
1.30859e-05
1.30615e-05
1.30859e-05
1.30615e-05
1.30859e-05
1.30371e-05
1.30859e-05
1.30371e-05
1.30859e-05
1.30371e-05
1.30859e-05
1.30371e-05
1.30615e-05
1.30371e-05
1.30615e-05
1.30371e-05
1.30615e-05
1.30371e-05
1.30615e-05
1.30127e-05
1.30615e-05
1.30127e-05
1.30615e-05
1.30127e-05
1.30371e-05
1.30127e-05
1.30371e-05
1.30127e-05
1.30371e-05
1.30127e-05
1.30371e-05
1.29883e-05
1.30371e-05
1.30127e-05
1.30371e-05
1.29883e-05
1.30371e-05
1.29883e-05
1.30371e-05
1.29883e-05
1.30371e-05
1.29883e-05
1.30371e-05
1.29883e-05
1.30127e-05
1.29883e-05
1.30127e-05
1.29639e-05
1.30127e-05
1.29883e-05
1.30127e-05
1.29883e-05
1.30127e-05
1.29639e-05
1.30127e-05
1.29639e-05
1.30127e-05
1.29639e-05
1.30127e-05
1.29639e-05
1.30127e-05
1.29639e-05
1.29883e-05
1.29639e-05
1.29883e-05
1.29639e-05
1.29883e-05
1.29639e-05
1.29883e-05
1.29639e-05
1.29883e-05
1.29639e-05
1.29883e-05
1.29639e-05
1.29883e-05
1.29395e-05
1.29639e-05
1.29639e-05
1.29883e-05
1.29395e-05
1.29639e-05
1.29395e-05
1.29639e-05
1.29395e-05
