6.4697e-06
6.4453e-06
6.4453e-06
6.4453e-06
6.4697e-06
6.4453e-06
6.4453e-06
6.4453e-06
6.4697e-06
6.4697e-06
6.4453e-06
6.4453e-06
6.4697e-06
6.4453e-06
6.4453e-06
6.4453e-06
6.4453e-06
6.4453e-06
6.4697e-06
6.4453e-06
6.4697e-06
6.4453e-06
6.4697e-06
6.4453e-06
6.4453e-06
6.4453e-06
6.4453e-06
6.4453e-06
6.4697e-06
6.4453e-06
6.4697e-06
6.4453e-06
6.4453e-06
6.4453e-06
6.4697e-06
6.4453e-06
6.4697e-06
6.4453e-06
6.4697e-06
6.4453e-06
6.4697e-06
6.4453e-06
6.4697e-06
6.4453e-06
6.4697e-06
6.4697e-06
6.4697e-06
6.4453e-06
6.4697e-06
6.4697e-06
6.4697e-06
6.4697e-06
6.4697e-06
6.4697e-06
6.4941e-06
6.4697e-06
6.4941e-06
6.4941e-06
6.4941e-06
6.4941e-06
6.4941e-06
6.4941e-06
6.4941e-06
6.4941e-06
6.5186e-06
6.4941e-06
6.4941e-06
6.4941e-06
6.5186e-06
6.5186e-06
6.5186e-06
6.5186e-06
6.5186e-06
6.5186e-06
6.5186e-06
6.5186e-06
6.5186e-06
6.543e-06
6.5186e-06
6.5186e-06
6.5186e-06
6.5186e-06
6.543e-06
6.543e-06
6.543e-06
6.5186e-06
6.543e-06
6.543e-06
6.543e-06
6.543e-06
6.543e-06
6.543e-06
6.543e-06
6.543e-06
6.543e-06
6.543e-06
6.543e-06
6.5186e-06
6.543e-06
6.543e-06
6.543e-06
6.543e-06
6.543e-06
6.543e-06
6.543e-06
6.543e-06
6.543e-06
6.543e-06
6.543e-06
6.543e-06
6.543e-06
6.543e-06
6.543e-06
6.5674e-06
6.543e-06
6.543e-06
6.543e-06
6.543e-06
6.543e-06
6.543e-06
6.5186e-06
6.543e-06
6.543e-06
6.543e-06
6.543e-06
6.543e-06
6.543e-06
6.543e-06
6.543e-06
6.543e-06
6.543e-06
6.543e-06
6.543e-06
6.543e-06
6.543e-06
6.543e-06
6.543e-06
6.543e-06
6.543e-06
6.543e-06
6.5674e-06
6.543e-06
6.543e-06
6.543e-06
6.5674e-06
6.543e-06
6.5674e-06
6.543e-06
6.5674e-06
6.5674e-06
6.5674e-06
6.5674e-06
6.5674e-06
6.5674e-06
6.5674e-06
6.543e-06
6.5674e-06
6.543e-06
6.5674e-06
6.543e-06
6.5674e-06
6.543e-06
6.543e-06
6.543e-06
6.543e-06
6.543e-06
6.543e-06
6.543e-06
6.543e-06
6.543e-06
6.543e-06
6.543e-06
6.543e-06
6.5186e-06
6.543e-06
6.543e-06
6.543e-06
6.543e-06
6.543e-06
6.543e-06
6.543e-06
6.543e-06
6.543e-06
6.5186e-06
6.543e-06
6.543e-06
6.543e-06
6.5186e-06
6.543e-06
6.543e-06
6.543e-06
6.5186e-06
6.543e-06
6.543e-06
6.543e-06
6.5186e-06
6.543e-06
6.543e-06
6.543e-06
6.5186e-06
6.543e-06
6.5186e-06
6.543e-06
6.5186e-06
6.543e-06
6.5186e-06
6.543e-06
6.543e-06
6.543e-06
6.543e-06
6.543e-06
6.5186e-06
6.543e-06
6.543e-06
6.543e-06
6.543e-06
6.543e-06
6.543e-06
6.543e-06
6.543e-06
6.543e-06
6.543e-06
6.543e-06
6.543e-06
6.543e-06
6.543e-06
6.5674e-06
6.543e-06
6.543e-06
6.5674e-06
6.5674e-06
6.543e-06
6.543e-06
6.543e-06
6.5674e-06
6.543e-06
6.5674e-06
6.5674e-06
6.5674e-06
6.5674e-06
6.5674e-06
6.5674e-06
6.5674e-06
6.5674e-06
6.5674e-06
6.5674e-06
6.5674e-06
6.5674e-06
6.5918e-06
6.5674e-06
6.5918e-06
6.543e-06
6.5918e-06
6.5674e-06
6.5918e-06
6.5918e-06
6.5918e-06
6.5918e-06
6.5918e-06
6.5674e-06
6.5918e-06
6.5918e-06
6.5918e-06
6.5918e-06
6.5918e-06
6.5918e-06
6.6162e-06
6.5918e-06
6.5918e-06
6.5918e-06
6.5918e-06
6.5918e-06
6.6162e-06
6.6162e-06
6.6162e-06
6.5918e-06
6.6162e-06
6.5918e-06
6.6162e-06
6.5918e-06
6.6162e-06
6.5918e-06
6.6162e-06
6.5918e-06
6.5918e-06
6.5918e-06
6.6162e-06
6.5918e-06
6.6162e-06
6.5918e-06
6.6162e-06
6.5918e-06
6.5918e-06
6.6162e-06
6.5918e-06
6.5918e-06
6.5918e-06
6.5918e-06
6.5918e-06
6.5918e-06
6.6162e-06
6.5918e-06
6.6162e-06
6.5918e-06
6.6162e-06
6.5918e-06
6.6162e-06
6.5918e-06
6.5918e-06
6.5918e-06
6.5918e-06
6.5918e-06
6.5918e-06
6.5918e-06
6.5918e-06
6.5918e-06
6.5918e-06
6.5918e-06
6.5918e-06
6.5918e-06
6.5918e-06
6.5918e-06
6.5918e-06
6.5918e-06
6.5918e-06
6.5918e-06
6.5918e-06
6.5918e-06
6.5918e-06
6.5918e-06
6.5918e-06
6.5674e-06
6.5918e-06
6.5918e-06
6.5918e-06
6.6162e-06
6.5674e-06
6.5918e-06
6.5918e-06
6.5918e-06
6.5918e-06
6.5674e-06
6.5674e-06
6.5674e-06
6.5918e-06
6.5674e-06
6.5918e-06
6.5674e-06
6.5918e-06
6.5674e-06
6.5674e-06
6.5674e-06
6.5674e-06
6.5674e-06
6.5674e-06
6.5674e-06
6.5674e-06
6.5674e-06
6.5674e-06
6.543e-06
6.5674e-06
6.5674e-06
6.5674e-06
6.543e-06
6.5674e-06
6.543e-06
6.5674e-06
6.543e-06
6.543e-06
6.543e-06
6.543e-06
6.543e-06
6.543e-06
6.543e-06
6.5674e-06
6.543e-06
6.543e-06
6.543e-06
6.543e-06
6.543e-06
6.543e-06
6.543e-06
6.543e-06
6.543e-06
6.543e-06
6.543e-06
6.543e-06
6.543e-06
6.543e-06
6.543e-06
6.543e-06
6.543e-06
6.543e-06
6.5186e-06
6.543e-06
6.5186e-06
6.543e-06
6.5186e-06
6.543e-06
6.543e-06
6.543e-06
6.5186e-06
6.543e-06
6.5186e-06
6.543e-06
6.5186e-06
6.543e-06
6.5186e-06
6.5186e-06
6.5186e-06
6.5186e-06
6.4941e-06
6.5186e-06
6.5186e-06
6.5186e-06
6.4941e-06
6.5186e-06
6.5186e-06
6.5186e-06
6.5186e-06
6.5186e-06
6.5186e-06
6.4941e-06
6.4941e-06
6.4941e-06
6.5186e-06
6.5186e-06
6.4941e-06
6.543e-06
6.4941e-06
6.5186e-06
6.4941e-06
6.5186e-06
6.4941e-06
6.4941e-06
6.4941e-06
6.4941e-06
6.4941e-06
6.4941e-06
6.4941e-06
6.4941e-06
6.4941e-06
6.4941e-06
6.4697e-06
6.4697e-06
6.4697e-06
6.4697e-06
6.4697e-06
6.4697e-06
6.4697e-06
6.4941e-06
6.4941e-06
6.4941e-06
6.4697e-06
6.4941e-06
6.4697e-06
6.4941e-06
6.4697e-06
6.4697e-06
6.4697e-06
6.4941e-06
6.4697e-06
6.4941e-06
6.4697e-06
6.4697e-06
6.4697e-06
6.4697e-06
6.4697e-06
6.4941e-06
6.4697e-06
6.4941e-06
6.4697e-06
6.4697e-06
6.4697e-06
6.4697e-06
6.4697e-06
6.4941e-06
6.4697e-06
6.4697e-06
6.4697e-06
6.4697e-06
6.4697e-06
6.4697e-06
6.4697e-06
6.4697e-06
6.4697e-06
6.4697e-06
6.4697e-06
6.4697e-06
6.4697e-06
6.4697e-06
6.4697e-06
6.4697e-06
6.4697e-06
6.4941e-06
6.4697e-06
6.4697e-06
6.4697e-06
6.4453e-06
6.4453e-06
6.4697e-06
6.4453e-06
6.4453e-06
6.4453e-06
6.4697e-06
6.4453e-06
6.4697e-06
6.4453e-06
6.4697e-06
6.4453e-06
6.4697e-06
6.4453e-06
6.4697e-06
6.4453e-06
6.4697e-06
6.4453e-06
6.4453e-06
6.4453e-06
6.4453e-06
6.4453e-06
6.4453e-06
6.4453e-06
6.4453e-06
6.4453e-06
6.4453e-06
6.4209e-06
6.4453e-06
6.4209e-06
6.4453e-06
6.4209e-06
6.4453e-06
6.4453e-06
6.4453e-06
6.4209e-06
6.4453e-06
6.4209e-06
6.4209e-06
6.4209e-06
6.4209e-06
6.4209e-06
6.4453e-06
6.4453e-06
6.4453e-06
6.4209e-06
6.4453e-06
6.4453e-06
6.4209e-06
6.4453e-06
6.4453e-06
6.4209e-06
6.4453e-06
6.4209e-06
6.4453e-06
6.4453e-06
6.4209e-06
6.4209e-06
6.4453e-06
6.4209e-06
6.4209e-06
6.4209e-06
6.4453e-06
6.4209e-06
6.4209e-06
6.4209e-06
6.4209e-06
6.4209e-06
6.4209e-06
6.4209e-06
6.4209e-06
6.4209e-06
6.4209e-06
6.4209e-06
6.4209e-06
6.4209e-06
6.4453e-06
6.4209e-06
6.4209e-06
6.4209e-06
6.4209e-06
6.4209e-06
6.4453e-06
6.4209e-06
6.4453e-06
6.4209e-06
6.4453e-06
6.4453e-06
6.4209e-06
6.4209e-06
6.4453e-06
6.4453e-06
6.4453e-06
6.4209e-06
6.4453e-06
6.4209e-06
6.4453e-06
6.4453e-06
6.4453e-06
6.4209e-06
6.4453e-06
6.4209e-06
6.4453e-06
6.4453e-06
6.4941e-06
6.4453e-06
6.4697e-06
6.4453e-06
6.4697e-06
6.4453e-06
6.4941e-06
6.4697e-06
6.4941e-06
6.4453e-06
6.4941e-06
6.4697e-06
6.4941e-06
6.4697e-06
6.4941e-06
6.4697e-06
6.5186e-06
6.4941e-06
6.5186e-06
6.4941e-06
6.5186e-06
6.4941e-06
6.543e-06
6.5186e-06
6.543e-06
6.4941e-06
6.543e-06
6.5186e-06
6.543e-06
6.5186e-06
6.543e-06
6.543e-06
6.5674e-06
6.543e-06
6.5674e-06
6.543e-06
6.5918e-06
6.543e-06
6.5918e-06
6.5674e-06
6.5918e-06
6.5674e-06
6.5918e-06
6.5674e-06
6.6162e-06
6.5674e-06
6.6162e-06
6.5918e-06
6.6162e-06
6.5918e-06
6.6162e-06
6.6162e-06
6.6406e-06
6.6162e-06
6.6406e-06
6.6162e-06
6.665e-06
6.6162e-06
6.665e-06
6.6406e-06
6.665e-06
6.6406e-06
6.6895e-06
6.665e-06
6.6895e-06
6.665e-06
6.6895e-06
6.665e-06
6.7139e-06
6.665e-06
6.7139e-06
6.6895e-06
6.7139e-06
6.6895e-06
6.7139e-06
6.7139e-06
6.7383e-06
6.7139e-06
6.7383e-06
6.7139e-06
6.7383e-06
6.7139e-06
6.7383e-06
6.7139e-06
6.7627e-06
6.7139e-06
6.7627e-06
6.7383e-06
6.7627e-06
6.7383e-06
6.7627e-06
6.7383e-06
6.7627e-06
6.7383e-06
6.7871e-06
6.7383e-06
6.7871e-06
6.7383e-06
6.7871e-06
6.7627e-06
6.7871e-06
6.7627e-06
6.7871e-06
6.7627e-06
6.7871e-06
6.7627e-06
6.7871e-06
6.7627e-06
6.7871e-06
6.7627e-06
6.8115e-06
6.7871e-06
6.8115e-06
6.7627e-06
6.8115e-06
6.7871e-06
6.8115e-06
6.7627e-06
6.8115e-06
6.7871e-06
6.8115e-06
6.7627e-06
6.8115e-06
6.7871e-06
6.8115e-06
6.7871e-06
6.8115e-06
6.7871e-06
6.8115e-06
6.7871e-06
6.8115e-06
6.7871e-06
6.8115e-06
6.7871e-06
6.8115e-06
6.7871e-06
6.8115e-06
6.7871e-06
6.8115e-06
6.7871e-06
6.8115e-06
6.7871e-06
6.8359e-06
6.8115e-06
6.8359e-06
6.7871e-06
6.8359e-06
6.8115e-06
6.8359e-06
6.8115e-06
6.8359e-06
6.8115e-06
6.8359e-06
6.8115e-06
6.8359e-06
6.8115e-06
6.8359e-06
6.8359e-06
6.8604e-06
6.8359e-06
6.8604e-06
6.8359e-06
6.8604e-06
6.8359e-06
6.8604e-06
6.8359e-06
6.8848e-06
6.8359e-06
6.8848e-06
6.8604e-06
6.8848e-06
6.8604e-06
6.8848e-06
6.8604e-06
6.9092e-06
6.8604e-06
6.9092e-06
6.8848e-06
6.9092e-06
6.8848e-06
6.9092e-06
6.8848e-06
6.9336e-06
6.9092e-06
6.9336e-06
6.9092e-06
6.9336e-06
6.9336e-06
6.958e-06
6.9336e-06
6.958e-06
6.9336e-06
6.958e-06
6.9336e-06
6.9824e-06
6.958e-06
6.9824e-06
6.958e-06
6.9824e-06
6.958e-06
6.9824e-06
6.958e-06
7.0068e-06
6.958e-06
7.0068e-06
6.9824e-06
7.0068e-06
6.9824e-06
7.0068e-06
6.9824e-06
7.0068e-06
7.0068e-06
7.0312e-06
7.0068e-06
7.0312e-06
7.0068e-06
7.0312e-06
7.0068e-06
7.0312e-06
7.0068e-06
7.0557e-06
7.0068e-06
7.0557e-06
7.0068e-06
7.0312e-06
7.0068e-06
7.0557e-06
7.0312e-06
7.0557e-06
7.0068e-06
7.0557e-06
7.0068e-06
7.0312e-06
7.0068e-06
7.0557e-06
7.0068e-06
7.0557e-06
7.0068e-06
7.0312e-06
7.0068e-06
7.0312e-06
7.0068e-06
7.0312e-06
7.0068e-06
7.0312e-06
7.0068e-06
7.0557e-06
7.0068e-06
7.0557e-06
7.0068e-06
7.0557e-06
7.0068e-06
7.0312e-06
7.0312e-06
7.0557e-06
7.0068e-06
7.0557e-06
7.0312e-06
7.0801e-06
7.0312e-06
7.0801e-06
7.0312e-06
7.0801e-06
7.0557e-06
7.0801e-06
7.0557e-06
7.0801e-06
7.0557e-06
7.0801e-06
7.0557e-06
7.0801e-06
7.0312e-06
7.0801e-06
7.0557e-06
7.0801e-06
7.0312e-06
7.0557e-06
7.0557e-06
7.0801e-06
7.0557e-06
7.0801e-06
7.0557e-06
7.0801e-06
7.0557e-06
7.0801e-06
7.0557e-06
7.0801e-06
7.0557e-06
7.0801e-06
7.0557e-06
7.1045e-06
7.0557e-06
7.1045e-06
7.0557e-06
7.1045e-06
7.0801e-06
7.1045e-06
7.1045e-06
7.1289e-06
7.1045e-06
7.1289e-06
7.1045e-06
7.1289e-06
7.1045e-06
7.1533e-06
7.1045e-06
7.1533e-06
7.1045e-06
7.1777e-06
7.1533e-06
7.1777e-06
7.1533e-06
7.2021e-06
7.1777e-06
7.2021e-06
7.1777e-06
7.2021e-06
7.2021e-06
7.2266e-06
7.2021e-06
7.2266e-06
7.2021e-06
7.251e-06
7.2266e-06
7.2754e-06
7.251e-06
7.2998e-06
7.2754e-06
7.2998e-06
7.2754e-06
7.3242e-06
7.2998e-06
7.3242e-06
7.2998e-06
7.3486e-06
7.3242e-06
7.373e-06
7.3242e-06
7.373e-06
7.3486e-06
7.373e-06
7.3486e-06
7.373e-06
7.3486e-06
7.3975e-06
7.3486e-06
7.3975e-06
7.373e-06
7.3975e-06
7.373e-06
7.3975e-06
7.373e-06
7.4219e-06
7.3975e-06
7.4219e-06
7.3975e-06
7.4219e-06
7.3975e-06
7.4219e-06
7.3975e-06
7.4219e-06
7.3975e-06
7.4219e-06
7.3975e-06
7.4219e-06
7.3975e-06
7.4219e-06
7.3975e-06
7.4463e-06
7.3975e-06
7.4219e-06
7.3975e-06
7.4219e-06
7.3975e-06
7.4463e-06
7.4219e-06
7.4463e-06
7.4219e-06
7.4463e-06
7.4219e-06
7.4463e-06
7.4219e-06
7.4463e-06
7.4219e-06
7.4463e-06
7.4219e-06
7.4707e-06
7.4219e-06
7.4707e-06
7.4219e-06
7.4707e-06
7.4219e-06
7.4707e-06
7.4219e-06
7.4707e-06
7.4219e-06
7.4707e-06
7.4219e-06
7.4707e-06
7.4219e-06
7.4707e-06
7.4219e-06
7.4707e-06
7.4463e-06
7.4463e-06
7.4219e-06
7.4707e-06
7.4463e-06
7.4463e-06
7.4463e-06
7.4707e-06
7.4463e-06
7.4707e-06
7.4219e-06
7.4707e-06
7.4219e-06
7.4463e-06
7.4219e-06
7.4707e-06
7.4219e-06
7.4463e-06
7.4219e-06
7.4463e-06
7.4219e-06
7.4463e-06
7.4219e-06
7.4463e-06
7.4219e-06
7.4707e-06
7.4219e-06
7.4463e-06
7.4219e-06
7.4463e-06
7.4219e-06
7.4463e-06
7.4219e-06
7.4463e-06
7.3975e-06
7.4463e-06
7.3975e-06
7.4463e-06
7.3975e-06
7.4219e-06
7.3975e-06
7.4219e-06
7.3975e-06
7.4219e-06
7.3975e-06
7.4219e-06
7.373e-06
7.4219e-06
7.373e-06
7.3975e-06
7.373e-06
7.3975e-06
7.3486e-06
7.3975e-06
7.3486e-06
7.3975e-06
7.3242e-06
7.373e-06
7.3242e-06
7.373e-06
7.3242e-06
7.3486e-06
7.3242e-06
7.3486e-06
7.2998e-06
7.3486e-06
7.2998e-06
7.3242e-06
7.2998e-06
7.3242e-06
7.2998e-06
7.3242e-06
7.2754e-06
7.3242e-06
7.2754e-06
7.2998e-06
7.2754e-06
7.2998e-06
7.251e-06
7.2998e-06
7.251e-06
7.2998e-06
7.251e-06
7.2998e-06
7.251e-06
7.2998e-06
7.251e-06
7.2754e-06
7.251e-06
7.2754e-06
7.251e-06
7.2754e-06
7.251e-06
7.2754e-06
7.251e-06
7.2754e-06
7.251e-06
7.2754e-06
7.251e-06
7.2754e-06
7.251e-06
7.2754e-06
7.251e-06
7.2754e-06
7.251e-06
7.251e-06
7.251e-06
7.251e-06
7.251e-06
7.2754e-06
7.251e-06
7.2754e-06
7.2266e-06
7.2754e-06
7.2266e-06
7.2754e-06
7.2266e-06
7.251e-06
7.2266e-06
7.251e-06
7.2266e-06
7.251e-06
7.2021e-06
7.251e-06
7.2021e-06
7.251e-06
7.2021e-06
7.2266e-06
7.2021e-06
7.2266e-06
7.2021e-06
7.2266e-06
7.2021e-06
7.2266e-06
7.2021e-06
7.2266e-06
7.2021e-06
7.2266e-06
7.2021e-06
7.2266e-06
7.1777e-06
7.2266e-06
7.1777e-06
7.2266e-06
7.1777e-06
7.2021e-06
7.1777e-06
7.2021e-06
7.1777e-06
7.2021e-06
7.1777e-06
7.2021e-06
7.1533e-06
7.2021e-06
7.1777e-06
7.2021e-06
7.1533e-06
7.2021e-06
7.1777e-06
7.2021e-06
7.1533e-06
7.2021e-06
7.1533e-06
7.2021e-06
7.1533e-06
7.2021e-06
7.1533e-06
7.1777e-06
7.1533e-06
7.1777e-06
7.1289e-06
7.1777e-06
7.1533e-06
7.1777e-06
7.1533e-06
7.1777e-06
7.1533e-06
7.2021e-06
7.1289e-06
7.1777e-06
7.1533e-06
7.1777e-06
7.1533e-06
7.1777e-06
7.1533e-06
7.1777e-06
7.1533e-06
7.2021e-06
7.1533e-06
7.2021e-06
7.1533e-06
7.2021e-06
7.1777e-06
7.2021e-06
7.1777e-06
7.2021e-06
7.2021e-06
7.2266e-06
7.2021e-06
7.2266e-06
7.2021e-06
7.251e-06
7.2021e-06
7.251e-06
7.2021e-06
7.251e-06
7.2266e-06
7.251e-06
7.251e-06
7.2754e-06
7.2266e-06
7.2754e-06
7.251e-06
7.2998e-06
7.251e-06
7.2998e-06
7.2754e-06
7.3242e-06
7.2754e-06
7.3242e-06
7.2998e-06
7.3242e-06
7.2998e-06
7.3486e-06
7.3242e-06
7.3486e-06
7.3242e-06
7.3486e-06
7.3242e-06
7.373e-06
7.3242e-06
7.373e-06
7.3486e-06
7.373e-06
7.3486e-06
7.3975e-06
7.373e-06
7.3975e-06
7.373e-06
7.4219e-06
7.373e-06
7.4219e-06
7.3975e-06
7.4219e-06
7.3975e-06
7.4219e-06
7.3975e-06
7.4463e-06
7.4219e-06
7.4463e-06
7.4219e-06
7.4463e-06
7.4219e-06
7.4463e-06
7.4219e-06
7.4707e-06
7.4463e-06
7.4951e-06
7.4463e-06
7.4707e-06
7.4463e-06
7.4951e-06
7.4707e-06
7.4951e-06
7.4707e-06
7.4951e-06
7.4707e-06
7.5195e-06
7.4951e-06
7.5195e-06
7.4951e-06
7.5195e-06
7.4951e-06
7.5195e-06
7.4951e-06
7.5195e-06
7.4951e-06
7.5195e-06
7.4951e-06
7.5439e-06
7.5195e-06
7.5439e-06
7.4951e-06
7.5439e-06
7.5195e-06
7.5195e-06
7.4951e-06
7.5439e-06
7.5195e-06
7.5439e-06
7.5195e-06
7.5439e-06
7.5195e-06
7.5439e-06
7.5195e-06
7.5439e-06
7.5195e-06
7.5439e-06
7.5195e-06
7.5439e-06
7.5195e-06
7.5439e-06
7.4951e-06
7.5439e-06
7.4951e-06
7.5195e-06
7.4951e-06
7.5195e-06
7.4951e-06
7.5439e-06
7.4951e-06
7.5195e-06
7.4951e-06
7.5195e-06
7.4951e-06
7.5195e-06
7.4951e-06
7.5195e-06
7.4951e-06
7.5195e-06
7.4951e-06
7.5195e-06
7.4951e-06
7.4951e-06
7.4951e-06
7.4951e-06
7.4707e-06
7.4951e-06
7.4707e-06
7.4951e-06
7.4707e-06
7.4951e-06
7.4951e-06
7.4951e-06
7.4951e-06
7.5195e-06
7.4951e-06
7.4951e-06
7.4951e-06
7.5195e-06
7.4951e-06
7.4951e-06
7.4951e-06
7.4951e-06
7.4951e-06
7.4951e-06
7.4707e-06
7.4951e-06
7.4707e-06
7.4951e-06
7.4707e-06
7.4951e-06
7.4707e-06
7.4951e-06
7.4707e-06
7.4951e-06
7.4463e-06
7.4951e-06
7.4463e-06
7.4707e-06
7.4463e-06
7.4707e-06
7.4463e-06
7.4463e-06
7.4463e-06
7.4463e-06
7.4463e-06
7.4463e-06
7.4463e-06
7.4463e-06
7.4219e-06
7.4463e-06
7.4219e-06
7.4463e-06
7.4219e-06
7.4463e-06
7.4219e-06
7.4219e-06
7.4219e-06
7.4219e-06
7.4219e-06
7.4219e-06
7.4219e-06
7.4219e-06
7.3975e-06
7.4219e-06
7.3975e-06
7.3975e-06
7.3975e-06
7.3975e-06
7.3975e-06
7.3975e-06
7.373e-06
7.3975e-06
7.373e-06
7.3975e-06
7.373e-06
7.373e-06
7.3486e-06
7.3486e-06
7.3486e-06
7.3486e-06
7.3486e-06
7.3486e-06
7.3486e-06
7.3486e-06
7.3242e-06
7.3486e-06
7.3242e-06
7.3242e-06
7.3242e-06
7.3242e-06
7.3242e-06
7.3242e-06
7.3242e-06
7.3242e-06
7.3242e-06
7.3242e-06
7.2998e-06
7.3242e-06
7.2998e-06
7.3242e-06
7.3242e-06
7.3242e-06
7.2998e-06
7.3242e-06
7.2998e-06
7.3242e-06
7.2998e-06
7.3242e-06
7.2998e-06
7.2998e-06
7.2998e-06
7.2998e-06
7.2998e-06
7.2998e-06
7.2998e-06
7.2998e-06
7.2998e-06
7.2998e-06
7.2998e-06
7.2998e-06
7.2998e-06
7.2998e-06
7.2998e-06
7.2998e-06
7.2998e-06
7.3242e-06
7.2998e-06
7.2998e-06
7.2998e-06
7.3242e-06
7.3242e-06
7.3242e-06
7.3242e-06
7.3242e-06
7.3242e-06
7.3242e-06
7.3242e-06
7.3486e-06
7.3486e-06
7.3486e-06
7.3486e-06
7.373e-06
7.373e-06
7.373e-06
7.373e-06
7.3975e-06
7.3975e-06
7.3975e-06
7.3975e-06
7.3975e-06
7.3975e-06
7.4219e-06
7.4219e-06
7.4219e-06
7.4219e-06
7.4219e-06
7.4219e-06
7.4463e-06
7.4463e-06
7.4707e-06
7.4463e-06
7.4707e-06
7.4707e-06
7.4951e-06
7.4951e-06
7.4951e-06
7.4951e-06
7.5195e-06
7.4951e-06
7.5195e-06
7.5195e-06
7.5439e-06
7.5195e-06
7.5439e-06
7.5439e-06
7.5684e-06
7.5439e-06
7.5928e-06
7.5684e-06
7.5928e-06
7.5928e-06
7.6172e-06
7.5928e-06
7.6172e-06
7.6172e-06
7.6172e-06
7.6172e-06
7.6416e-06
7.6416e-06
7.6416e-06
7.6416e-06
7.666e-06
7.666e-06
7.6904e-06
7.6904e-06
7.6904e-06
7.6904e-06
7.7148e-06
7.7148e-06
7.7148e-06
7.7148e-06
7.7393e-06
7.7393e-06
7.7393e-06
7.7393e-06
7.7637e-06
7.7637e-06
7.7637e-06
7.7637e-06
7.7881e-06
7.7881e-06
7.7881e-06
7.7881e-06
7.8125e-06
7.7881e-06
7.8125e-06
7.8125e-06
7.8369e-06
7.8369e-06
7.8369e-06
7.8369e-06
7.8613e-06
7.8369e-06
7.8613e-06
7.8613e-06
7.8857e-06
7.8857e-06
7.8857e-06
7.8857e-06
7.9102e-06
7.9102e-06
7.9102e-06
7.9102e-06
7.9346e-06
7.9346e-06
7.959e-06
7.959e-06
7.959e-06
7.959e-06
7.9834e-06
7.9834e-06
7.9834e-06
7.9834e-06
8.0078e-06
7.9834e-06
8.0078e-06
8.0078e-06
8.0322e-06
8.0078e-06
8.0322e-06
8.0322e-06
8.0322e-06
8.0322e-06
8.0566e-06
8.0566e-06
8.0566e-06
8.0566e-06
8.0811e-06
8.0811e-06
8.0811e-06
8.0811e-06
8.1055e-06
8.1055e-06
8.1055e-06
8.1055e-06
8.1299e-06
8.1055e-06
8.1299e-06
8.1299e-06
8.1299e-06
8.1299e-06
8.1543e-06
8.1543e-06
8.1543e-06
8.1543e-06
8.1543e-06
8.1543e-06
8.1787e-06
8.1787e-06
8.1787e-06
8.1787e-06
8.1787e-06
8.1787e-06
8.1787e-06
8.1787e-06
8.1787e-06
8.1787e-06
8.1787e-06
8.1787e-06
8.2031e-06
8.2031e-06
8.2031e-06
8.2031e-06
8.2031e-06
8.2031e-06
8.2275e-06
8.2031e-06
8.2275e-06
8.2275e-06
8.2275e-06
8.2275e-06
8.252e-06
8.2275e-06
8.2275e-06
8.2275e-06
8.2275e-06
8.2275e-06
8.2275e-06
8.2275e-06
8.2275e-06
8.2275e-06
8.252e-06
8.2275e-06
8.2275e-06
8.2275e-06
8.2275e-06
8.2275e-06
8.2275e-06
8.2275e-06
8.2275e-06
8.2275e-06
8.2275e-06
8.2275e-06
8.2275e-06
8.2275e-06
8.2275e-06
8.2275e-06
8.2275e-06
8.2275e-06
8.2275e-06
8.2275e-06
8.2275e-06
8.2275e-06
8.2275e-06
8.2275e-06
8.2275e-06
8.2275e-06
8.2275e-06
8.2275e-06
8.2275e-06
8.2275e-06
8.2275e-06
8.2275e-06
8.2275e-06
8.2275e-06
8.2275e-06
8.2275e-06
8.2275e-06
8.2275e-06
8.2275e-06
8.2275e-06
8.2275e-06
8.2275e-06
8.2275e-06
8.2275e-06
8.2275e-06
8.2275e-06
8.252e-06
8.2275e-06
8.252e-06
8.2275e-06
8.252e-06
8.2275e-06
8.252e-06
8.2275e-06
8.252e-06
8.2275e-06
8.252e-06
8.2275e-06
8.252e-06
8.2275e-06
8.252e-06
8.2275e-06
8.2275e-06
8.2275e-06
8.2275e-06
8.2275e-06
8.252e-06
8.2275e-06
8.2275e-06
8.2275e-06
8.2275e-06
8.2275e-06
8.2275e-06
8.2275e-06
8.2275e-06
8.2275e-06
8.2275e-06
8.2031e-06
8.2275e-06
8.2031e-06
8.2275e-06
8.2031e-06
8.2275e-06
8.2031e-06
8.2031e-06
8.2031e-06
8.2275e-06
8.2031e-06
8.2275e-06
8.2031e-06
8.2031e-06
8.2031e-06
8.2275e-06
8.2031e-06
8.2031e-06
8.2031e-06
8.2031e-06
8.2031e-06
8.2275e-06
8.2031e-06
8.2031e-06
8.2031e-06
8.2031e-06
8.2031e-06
8.2031e-06
8.2031e-06
8.2031e-06
8.1787e-06
8.2031e-06
8.1787e-06
8.2031e-06
8.1787e-06
8.1787e-06
8.1787e-06
8.1787e-06
8.1787e-06
8.1787e-06
8.1787e-06
8.1787e-06
8.1787e-06
8.1787e-06
8.1787e-06
8.1787e-06
8.1787e-06
8.1787e-06
8.1787e-06
8.1787e-06
8.1787e-06
8.1787e-06
8.1787e-06
8.1787e-06
8.1543e-06
8.1787e-06
8.1543e-06
8.1787e-06
8.1543e-06
8.1787e-06
8.1543e-06
8.1543e-06
8.1543e-06
8.1787e-06
8.1543e-06
8.1543e-06
8.1543e-06
8.1787e-06
8.1543e-06
8.1543e-06
8.1543e-06
8.1543e-06
8.1543e-06
8.1543e-06
8.1543e-06
8.1543e-06
8.1543e-06
8.1543e-06
8.1543e-06
8.1543e-06
8.1543e-06
8.1543e-06
8.1543e-06
8.1543e-06
8.1543e-06
8.1543e-06
8.1543e-06
8.1543e-06
8.1543e-06
8.1543e-06
8.1543e-06
8.1543e-06
8.1543e-06
8.1543e-06
8.1543e-06
8.1543e-06
8.1299e-06
8.1543e-06
8.1299e-06
8.1543e-06
8.1299e-06
8.1543e-06
8.1299e-06
8.1299e-06
8.1299e-06
8.1299e-06
8.1299e-06
8.1299e-06
8.1055e-06
8.1299e-06
8.1299e-06
8.1299e-06
8.1055e-06
8.1299e-06
8.1299e-06
8.1055e-06
8.1055e-06
8.1055e-06
8.1055e-06
8.1055e-06
8.1055e-06
8.1055e-06
8.1055e-06
8.1055e-06
8.1055e-06
8.1055e-06
8.1055e-06
8.1055e-06
8.1055e-06
8.1055e-06
8.1055e-06
8.1055e-06
8.1055e-06
8.1055e-06
8.1055e-06
8.1055e-06
8.0811e-06
8.0811e-06
8.0811e-06
8.1055e-06
8.0811e-06
8.0811e-06
8.0811e-06
8.0811e-06
8.0811e-06
8.0811e-06
8.0811e-06
8.0811e-06
8.0811e-06
8.0811e-06
8.0566e-06
8.0811e-06
8.0566e-06
8.0566e-06
8.0566e-06
8.0566e-06
8.0566e-06
8.0566e-06
8.0322e-06
8.0322e-06
8.0322e-06
8.0566e-06
8.0322e-06
8.0566e-06
8.0322e-06
8.0322e-06
8.0322e-06
8.0322e-06
8.0322e-06
8.0322e-06
8.0322e-06
8.0322e-06
8.0078e-06
8.0322e-06
8.0322e-06
8.0322e-06
8.0078e-06
8.0078e-06
8.0078e-06
8.0078e-06
8.0078e-06
8.0078e-06
8.0078e-06
8.0078e-06
7.9834e-06
8.0078e-06
7.9834e-06
8.0078e-06
7.9834e-06
7.9834e-06
7.9834e-06
7.9834e-06
7.9834e-06
7.9834e-06
7.9834e-06
7.9834e-06
7.9834e-06
7.9834e-06
7.9834e-06
7.9834e-06
7.9834e-06
7.9834e-06
7.9834e-06
7.9834e-06
7.9834e-06
7.9834e-06
7.9834e-06
7.9834e-06
7.9834e-06
7.9834e-06
7.9834e-06
7.9834e-06
7.9834e-06
7.9834e-06
7.9834e-06
7.9834e-06
7.9834e-06
7.9834e-06
7.9834e-06
7.9834e-06
7.959e-06
7.9834e-06
7.9834e-06
7.9834e-06
7.959e-06
7.9834e-06
7.959e-06
7.9834e-06
7.959e-06
7.9834e-06
7.959e-06
7.959e-06
7.959e-06
7.959e-06
7.959e-06
7.959e-06
7.959e-06
7.959e-06
7.959e-06
7.959e-06
7.959e-06
7.9834e-06
7.959e-06
7.9834e-06
7.959e-06
7.959e-06
7.9834e-06
7.959e-06
7.959e-06
7.9834e-06
7.959e-06
7.9834e-06
7.959e-06
7.9834e-06
7.959e-06
7.9834e-06
7.959e-06
7.959e-06
7.9834e-06
7.9834e-06
7.959e-06
7.959e-06
7.959e-06
7.9834e-06
7.959e-06
7.9834e-06
7.959e-06
7.9834e-06
7.959e-06
7.9834e-06
7.959e-06
7.9834e-06
7.959e-06
7.9834e-06
7.959e-06
7.9834e-06
7.959e-06
7.9834e-06
7.959e-06
7.9834e-06
7.959e-06
7.959e-06
7.959e-06
7.9834e-06
7.959e-06
7.9834e-06
7.9834e-06
7.9834e-06
7.959e-06
7.959e-06
7.959e-06
7.959e-06
7.959e-06
7.9834e-06
7.959e-06
7.9834e-06
7.959e-06
7.9834e-06
7.9834e-06
7.9834e-06
7.959e-06
7.9834e-06
7.9834e-06
7.9834e-06
7.959e-06
7.9834e-06
7.959e-06
7.959e-06
7.959e-06
7.9834e-06
7.959e-06
7.9834e-06
7.959e-06
7.9834e-06
7.959e-06
7.9834e-06
7.959e-06
7.9834e-06
7.959e-06
7.959e-06
7.959e-06
7.9834e-06
7.959e-06
7.9834e-06
7.959e-06
7.959e-06
7.959e-06
7.959e-06
7.959e-06
7.959e-06
7.959e-06
7.959e-06
7.959e-06
7.959e-06
7.959e-06
7.959e-06
7.959e-06
7.959e-06
7.959e-06
7.959e-06
7.959e-06
7.959e-06
7.959e-06
7.959e-06
7.959e-06
7.959e-06
7.959e-06
7.959e-06
7.959e-06
7.959e-06
7.959e-06
7.959e-06
7.959e-06
7.959e-06
7.959e-06
7.9834e-06
7.959e-06
7.9834e-06
7.9834e-06
7.9834e-06
7.9834e-06
7.9834e-06
7.9834e-06
7.9834e-06
7.9834e-06
8.0078e-06
8.0078e-06
8.0078e-06
8.0078e-06
8.0322e-06
8.0078e-06
8.0322e-06
8.0322e-06
8.0566e-06
8.0322e-06
8.0566e-06
8.0566e-06
8.0811e-06
8.0811e-06
8.0811e-06
8.0811e-06
8.1055e-06
8.1055e-06
8.1055e-06
8.1055e-06
8.1299e-06
8.1299e-06
8.1543e-06
8.1299e-06
8.1543e-06
8.1543e-06
8.1543e-06
8.1543e-06
8.1787e-06
8.1787e-06
8.2031e-06
8.2031e-06
8.2031e-06
8.2031e-06
8.2275e-06
8.2275e-06
8.2275e-06
8.252e-06
8.252e-06
8.252e-06
8.2764e-06
8.2764e-06
8.3008e-06
8.2764e-06
8.3008e-06
8.3008e-06
8.3252e-06
8.3008e-06
8.3496e-06
8.3496e-06
8.3496e-06
8.3496e-06
8.374e-06
8.374e-06
8.374e-06
8.374e-06
8.3984e-06
8.3984e-06
8.3984e-06
8.3984e-06
8.4229e-06
8.3984e-06
8.4229e-06
8.4229e-06
8.4229e-06
8.4473e-06
8.4473e-06
8.4473e-06
8.4717e-06
8.4717e-06
8.4717e-06
8.4717e-06
8.4717e-06
8.4717e-06
8.4717e-06
8.4717e-06
8.4961e-06
8.4961e-06
8.4961e-06
8.4961e-06
8.4961e-06
8.4961e-06
8.5205e-06
8.4961e-06
8.5205e-06
8.5205e-06
8.5205e-06
8.5205e-06
8.5205e-06
8.5205e-06
8.5205e-06
8.5205e-06
8.5205e-06
8.5205e-06
8.5205e-06
8.5205e-06
8.5205e-06
8.5205e-06
8.5205e-06
8.5205e-06
8.5205e-06
8.5205e-06
8.5449e-06
8.5205e-06
8.5205e-06
8.5205e-06
8.5205e-06
8.5205e-06
8.5205e-06
8.5205e-06
8.5205e-06
8.5205e-06
8.5205e-06
8.5205e-06
8.5205e-06
8.5205e-06
8.5205e-06
8.5205e-06
8.5205e-06
8.5205e-06
8.5205e-06
8.4961e-06
8.5205e-06
8.5205e-06
8.5205e-06
8.5205e-06
8.5205e-06
8.4961e-06
8.4961e-06
8.4961e-06
8.4961e-06
8.4961e-06
8.4961e-06
8.4961e-06
8.4961e-06
8.4961e-06
8.4961e-06
8.4961e-06
8.4717e-06
8.4717e-06
8.4717e-06
8.4717e-06
8.4717e-06
8.4717e-06
8.4717e-06
8.4717e-06
8.4717e-06
8.4473e-06
8.4473e-06
8.4473e-06
8.4473e-06
8.4473e-06
8.4473e-06
8.4473e-06
8.4229e-06
8.4229e-06
8.4229e-06
8.4229e-06
8.4229e-06
8.4229e-06
8.4229e-06
8.4229e-06
8.4229e-06
8.4229e-06
8.3984e-06
8.3984e-06
8.3984e-06
8.3984e-06
8.4229e-06
8.3984e-06
8.3984e-06
8.3984e-06
8.3984e-06
8.3984e-06
8.374e-06
8.374e-06
8.374e-06
8.374e-06
8.374e-06
8.374e-06
8.374e-06
8.374e-06
8.374e-06
8.3496e-06
8.374e-06
8.3496e-06
8.3496e-06
8.3496e-06
8.3496e-06
8.3496e-06
8.3496e-06
8.3252e-06
8.3496e-06
8.3252e-06
8.3252e-06
8.3252e-06
8.3252e-06
8.3008e-06
8.3252e-06
8.3008e-06
8.3008e-06
8.3008e-06
8.3008e-06
8.3008e-06
8.3008e-06
8.2764e-06
8.2764e-06
8.2764e-06
8.2764e-06
8.2764e-06
8.2764e-06
8.2764e-06
8.2764e-06
8.2764e-06
8.2764e-06
8.252e-06
8.2764e-06
8.2764e-06
8.252e-06
8.252e-06
8.252e-06
8.252e-06
8.252e-06
8.252e-06
8.2275e-06
8.2275e-06
8.2275e-06
8.2275e-06
8.2275e-06
8.2275e-06
8.2275e-06
8.2275e-06
8.2031e-06
8.2031e-06
8.2031e-06
8.2031e-06
8.2031e-06
8.2031e-06
8.2031e-06
8.2031e-06
8.2031e-06
8.2031e-06
8.2031e-06
8.1787e-06
8.2031e-06
8.2031e-06
8.2031e-06
8.1787e-06
8.1787e-06
8.1787e-06
8.1787e-06
8.1787e-06
8.2031e-06
8.1787e-06
8.1787e-06
8.1787e-06
8.1787e-06
8.1787e-06
8.1787e-06
8.1787e-06
8.1787e-06
8.1787e-06
8.1787e-06
8.1787e-06
8.1787e-06
8.1787e-06
8.1787e-06
8.1787e-06
8.1787e-06
8.1787e-06
8.1787e-06
8.1787e-06
8.1787e-06
8.1787e-06
8.1787e-06
8.1787e-06
8.1787e-06
8.1787e-06
8.1787e-06
8.1787e-06
8.1787e-06
8.1787e-06
8.1787e-06
8.1787e-06
8.1787e-06
8.1787e-06
8.1787e-06
8.2031e-06
8.2031e-06
8.1787e-06
8.2031e-06
8.1787e-06
8.2031e-06
8.2031e-06
8.2031e-06
8.2031e-06
8.2031e-06
8.2031e-06
8.2031e-06
8.2031e-06
8.2031e-06
8.2031e-06
8.2031e-06
8.2031e-06
8.2031e-06
8.2031e-06
8.2031e-06
8.2031e-06
8.2031e-06
8.2275e-06
8.2275e-06
8.2275e-06
8.2275e-06
8.2275e-06
8.2275e-06
8.2275e-06
8.2275e-06
8.2275e-06
8.252e-06
8.2275e-06
8.2275e-06
8.2275e-06
8.252e-06
8.252e-06
8.252e-06
8.252e-06
8.252e-06
8.252e-06
8.252e-06
8.252e-06
8.252e-06
8.252e-06
8.252e-06
8.252e-06
8.2764e-06
8.252e-06
8.252e-06
8.252e-06
8.252e-06
8.252e-06
8.2764e-06
8.252e-06
8.2764e-06
8.252e-06
8.2764e-06
8.252e-06
8.2764e-06
8.252e-06
8.252e-06
8.2764e-06
8.2764e-06
8.2764e-06
8.2764e-06
8.2764e-06
8.2764e-06
8.2764e-06
8.2764e-06
8.2764e-06
8.2764e-06
8.2764e-06
8.2764e-06
8.2764e-06
8.2764e-06
8.2764e-06
8.2764e-06
8.2764e-06
8.2764e-06
8.2764e-06
8.3008e-06
8.3008e-06
8.3008e-06
8.3008e-06
8.3008e-06
8.3008e-06
8.3008e-06
8.3008e-06
8.3008e-06
8.3008e-06
8.3008e-06
8.3252e-06
8.3252e-06
8.3252e-06
8.3252e-06
8.3252e-06
8.3496e-06
8.3496e-06
8.3496e-06
8.3496e-06
8.3496e-06
8.3496e-06
8.3496e-06
8.3496e-06
8.374e-06
8.374e-06
8.374e-06
8.374e-06
8.374e-06
8.3984e-06
8.3984e-06
8.3984e-06
8.3984e-06
8.3984e-06
8.3984e-06
8.3984e-06
8.3984e-06
8.3984e-06
8.3984e-06
8.3984e-06
8.4229e-06
8.4229e-06
8.4229e-06
8.4229e-06
8.4229e-06
8.4229e-06
8.4229e-06
8.4473e-06
8.4229e-06
8.4473e-06
8.4473e-06
8.4473e-06
8.4473e-06
8.4473e-06
8.4717e-06
8.4717e-06
8.4473e-06
8.4717e-06
8.4717e-06
8.4717e-06
8.4717e-06
8.4717e-06
8.4717e-06
8.4717e-06
8.4717e-06
8.4717e-06
8.4717e-06
8.4717e-06
8.4717e-06
8.4961e-06
8.4961e-06
8.4961e-06
8.4961e-06
8.4961e-06
8.4961e-06
8.4961e-06
8.4961e-06
8.4961e-06
8.4961e-06
8.4961e-06
8.4961e-06
8.4961e-06
8.4961e-06
8.4961e-06
8.4961e-06
8.4961e-06
8.4961e-06
8.4961e-06
8.4961e-06
8.4961e-06
8.4961e-06
8.5205e-06
8.4961e-06
8.5205e-06
8.5205e-06
8.4961e-06
8.5205e-06
8.5205e-06
8.5205e-06
8.4961e-06
8.5205e-06
8.5205e-06
8.5205e-06
8.5205e-06
8.5205e-06
8.5205e-06
8.5205e-06
8.5205e-06
8.5205e-06
8.5205e-06
8.5205e-06
8.5205e-06
8.5205e-06
8.5205e-06
8.5205e-06
8.5205e-06
8.5205e-06
8.5205e-06
8.5205e-06
8.5205e-06
8.5205e-06
8.5205e-06
8.5205e-06
8.5205e-06
8.5205e-06
8.5205e-06
8.5205e-06
8.5205e-06
8.5205e-06
8.5205e-06
8.5205e-06
8.5205e-06
8.5205e-06
8.5205e-06
8.5205e-06
8.4961e-06
8.5205e-06
8.5205e-06
8.5205e-06
8.4961e-06
8.5205e-06
8.5205e-06
8.5205e-06
8.5205e-06
8.5205e-06
8.5205e-06
8.5205e-06
8.4961e-06
8.5205e-06
8.4961e-06
8.5205e-06
8.4961e-06
8.4961e-06
8.4961e-06
8.4961e-06
8.4961e-06
8.4961e-06
8.5205e-06
8.5205e-06
8.4961e-06
8.4961e-06
8.4961e-06
8.5205e-06
8.4961e-06
8.4961e-06
8.4961e-06
8.4961e-06
8.4961e-06
8.4961e-06
8.4961e-06
8.4961e-06
8.4961e-06
8.4961e-06
8.4961e-06
8.4961e-06
8.4961e-06
8.4961e-06
8.4961e-06
8.4961e-06
8.4961e-06
8.4961e-06
8.4961e-06
8.4961e-06
8.4961e-06
8.4961e-06
8.4961e-06
8.4961e-06
8.4961e-06
8.4961e-06
8.4717e-06
8.4717e-06
8.4717e-06
8.4717e-06
8.4717e-06
8.4717e-06
8.4717e-06
8.4717e-06
8.4717e-06
8.4717e-06
8.4473e-06
8.4717e-06
8.4473e-06
8.4717e-06
8.4473e-06
8.4473e-06
8.4473e-06
8.4473e-06
8.4473e-06
8.4473e-06
8.4229e-06
8.4229e-06
8.4229e-06
8.4229e-06
8.4229e-06
8.4229e-06
8.4229e-06
8.4229e-06
8.4229e-06
8.4229e-06
8.3984e-06
8.3984e-06
8.4229e-06
8.3984e-06
8.3984e-06
8.3984e-06
8.3984e-06
8.3984e-06
8.3984e-06
8.3984e-06
8.3984e-06
8.3984e-06
8.374e-06
8.3984e-06
8.3984e-06
8.374e-06
8.374e-06
8.374e-06
8.374e-06
8.374e-06
8.374e-06
8.374e-06
8.374e-06
8.3496e-06
8.3496e-06
8.3496e-06
8.3496e-06
8.3496e-06
8.3496e-06
8.3496e-06
8.3496e-06
8.3496e-06
8.3496e-06
8.3496e-06
8.3252e-06
8.3252e-06
8.3252e-06
8.3252e-06
8.3252e-06
8.3252e-06
8.3252e-06
8.3252e-06
8.3008e-06
8.3008e-06
8.3008e-06
8.3008e-06
8.3008e-06
8.3008e-06
8.3008e-06
8.3008e-06
8.3008e-06
8.2764e-06
8.2764e-06
8.2764e-06
8.2764e-06
8.2764e-06
8.2764e-06
8.2764e-06
8.2764e-06
8.2764e-06
8.2764e-06
8.2764e-06
8.2764e-06
8.2764e-06
8.252e-06
8.2764e-06
8.252e-06
8.2764e-06
8.252e-06
8.252e-06
8.252e-06
8.252e-06
8.252e-06
8.2275e-06
8.252e-06
8.252e-06
8.2275e-06
8.2275e-06
8.2275e-06
8.2275e-06
8.2275e-06
8.2275e-06
8.2275e-06
8.2031e-06
8.2275e-06
8.2031e-06
8.2031e-06
8.2275e-06
8.2031e-06
8.2031e-06
8.2031e-06
8.2031e-06
8.2031e-06
8.2031e-06
8.2031e-06
8.2031e-06
8.2031e-06
8.2031e-06
8.2031e-06
8.1787e-06
8.2031e-06
8.1787e-06
8.1787e-06
8.1787e-06
8.1787e-06
8.1787e-06
8.1787e-06
8.1787e-06
8.1787e-06
8.1787e-06
8.1787e-06
8.1787e-06
8.1787e-06
8.1787e-06
8.1787e-06
8.1787e-06
8.1787e-06
8.1787e-06
8.1787e-06
8.1543e-06
8.1543e-06
8.1543e-06
8.1543e-06
8.1543e-06
8.1543e-06
8.1543e-06
8.1543e-06
8.1543e-06
8.1543e-06
8.1543e-06
8.1543e-06
8.1543e-06
8.1543e-06
8.1543e-06
8.1543e-06
8.1543e-06
8.1299e-06
8.1299e-06
8.1543e-06
8.1299e-06
8.1299e-06
8.1299e-06
8.1299e-06
8.1299e-06
8.1299e-06
8.1055e-06
8.1299e-06
8.1299e-06
8.1299e-06
8.1055e-06
8.1299e-06
8.1055e-06
8.1055e-06
8.1055e-06
8.1055e-06
8.1055e-06
8.1055e-06
8.1055e-06
8.1055e-06
8.1055e-06
8.1055e-06
8.1055e-06
8.1055e-06
8.1055e-06
8.1055e-06
8.1055e-06
8.1055e-06
8.1055e-06
8.1055e-06
8.1055e-06
8.1055e-06
8.1055e-06
8.1055e-06
8.1055e-06
8.1055e-06
8.1055e-06
8.1055e-06
8.0811e-06
8.1055e-06
8.0811e-06
8.0811e-06
8.0811e-06
8.1055e-06
8.0811e-06
8.0811e-06
8.0811e-06
8.0811e-06
8.0811e-06
8.0811e-06
8.1055e-06
8.0811e-06
8.0811e-06
8.0811e-06
8.0811e-06
8.0811e-06
8.0811e-06
8.0811e-06
8.0811e-06
8.0811e-06
8.0811e-06
8.0811e-06
8.0811e-06
8.0811e-06
8.0566e-06
8.0566e-06
8.0566e-06
8.0811e-06
8.0811e-06
8.0811e-06
8.0566e-06
8.0811e-06
8.0566e-06
8.0811e-06
8.0566e-06
8.0811e-06
8.0566e-06
8.0811e-06
8.0566e-06
8.0811e-06
8.0566e-06
8.0811e-06
8.0566e-06
8.0566e-06
8.0566e-06
8.0566e-06
8.0566e-06
8.0811e-06
8.0566e-06
8.0566e-06
8.0566e-06
8.0566e-06
8.0566e-06
8.0566e-06
8.0566e-06
8.0566e-06
8.0566e-06
8.0566e-06
8.0566e-06
8.0566e-06
8.0566e-06
8.0566e-06
8.0566e-06
8.0566e-06
8.0566e-06
8.0566e-06
8.0566e-06
8.0566e-06
8.0566e-06
8.0566e-06
8.0566e-06
8.0566e-06
8.0566e-06
8.0566e-06
8.0566e-06
8.0566e-06
8.0566e-06
8.0566e-06
8.0566e-06
8.0566e-06
8.0566e-06
8.0566e-06
8.0811e-06
8.0811e-06
8.0566e-06
8.0811e-06
8.0566e-06
8.0811e-06
8.0566e-06
8.0811e-06
8.0811e-06
8.0811e-06
8.0811e-06
8.0811e-06
8.0566e-06
8.0811e-06
8.0566e-06
8.0566e-06
8.0566e-06
8.0811e-06
8.0811e-06
8.0811e-06
8.0811e-06
8.0811e-06
8.0811e-06
8.0811e-06
8.0566e-06
8.0811e-06
8.0566e-06
8.0811e-06
8.0566e-06
8.0566e-06
8.0566e-06
8.0811e-06
8.0566e-06
8.0811e-06
8.0566e-06
8.0811e-06
8.0566e-06
8.0811e-06
8.0566e-06
8.0811e-06
8.0566e-06
8.0566e-06
8.0566e-06
8.0566e-06
8.0566e-06
8.0566e-06
8.0566e-06
8.0811e-06
8.0566e-06
8.0811e-06
8.0566e-06
8.0566e-06
8.0566e-06
8.0811e-06
8.0566e-06
8.0566e-06
8.0566e-06
8.0811e-06
8.0566e-06
8.0566e-06
8.0566e-06
8.0566e-06
8.0566e-06
8.0566e-06
8.0566e-06
8.0566e-06
8.0566e-06
8.0566e-06
8.0322e-06
8.0566e-06
8.0322e-06
8.0566e-06
8.0322e-06
8.0566e-06
8.0322e-06
8.0566e-06
8.0322e-06
8.0566e-06
8.0322e-06
8.0566e-06
8.0322e-06
8.0566e-06
8.0322e-06
8.0566e-06
8.0322e-06
8.0566e-06
8.0322e-06
8.0566e-06
8.0322e-06
8.0566e-06
8.0322e-06
8.0566e-06
8.0322e-06
8.0322e-06
8.0322e-06
8.0322e-06
8.0322e-06
8.0322e-06
8.0322e-06
8.0566e-06
8.0322e-06
8.0322e-06
8.0322e-06
8.0322e-06
8.0322e-06
8.0566e-06
8.0322e-06
8.0322e-06
8.0322e-06
8.0566e-06
8.0322e-06
8.0322e-06
8.0322e-06
8.0566e-06
8.0322e-06
8.0566e-06
8.0322e-06
8.0566e-06
8.0322e-06
8.0566e-06
8.0322e-06
8.0566e-06
8.0322e-06
8.0566e-06
8.0566e-06
8.0566e-06
8.0322e-06
8.0566e-06
8.0566e-06
8.0811e-06
8.0566e-06
8.0566e-06
8.0566e-06
8.0811e-06
8.0566e-06
8.0811e-06
8.0566e-06
8.0811e-06
8.0566e-06
8.0811e-06
8.0566e-06
8.0811e-06
8.0811e-06
8.0811e-06
8.0566e-06
8.1055e-06
8.0811e-06
8.0811e-06
8.0811e-06
8.1055e-06
8.0811e-06
8.0811e-06
8.0811e-06
8.1055e-06
8.0811e-06
8.1055e-06
8.0811e-06
8.1055e-06
8.0811e-06
8.1055e-06
8.1055e-06
8.1055e-06
8.1055e-06
8.1055e-06
8.1055e-06
8.1055e-06
8.1055e-06
8.1299e-06
8.1299e-06
8.1543e-06
8.1299e-06
8.1299e-06
8.1299e-06
8.1543e-06
8.1543e-06
8.1543e-06
8.1543e-06
8.1787e-06
8.1787e-06
8.1787e-06
8.1787e-06
8.2031e-06
8.2031e-06
8.2031e-06
8.2031e-06
8.2275e-06
8.2275e-06
8.252e-06
8.252e-06
8.2764e-06
8.2764e-06
8.2764e-06
8.2764e-06
8.3008e-06
8.3008e-06
8.3008e-06
8.3252e-06
8.3496e-06
8.3496e-06
8.3496e-06
8.374e-06
8.374e-06
8.3984e-06
8.3984e-06
8.3984e-06
8.4229e-06
8.4229e-06
8.4473e-06
8.4473e-06
8.4717e-06
8.4717e-06
8.4717e-06
8.4717e-06
8.4961e-06
8.4961e-06
8.4961e-06
8.5205e-06
8.5449e-06
8.5449e-06
8.5449e-06
8.5449e-06
8.5693e-06
8.5693e-06
8.5937e-06
8.5937e-06
8.6182e-06
8.6182e-06
8.6182e-06
8.6182e-06
8.6426e-06
8.6426e-06
8.667e-06
8.667e-06
8.667e-06
8.667e-06
8.6914e-06
8.6914e-06
8.6914e-06
8.6914e-06
8.7158e-06
8.7158e-06
8.7158e-06
8.7402e-06
8.7402e-06
8.7402e-06
8.7646e-06
8.7402e-06
8.7646e-06
8.7402e-06
8.7646e-06
8.7646e-06
8.7891e-06
8.7646e-06
8.7891e-06
8.7646e-06
8.7891e-06
8.7891e-06
8.8135e-06
8.7891e-06
8.8135e-06
8.7891e-06
8.8135e-06
8.8135e-06
8.8135e-06
8.8135e-06
8.8379e-06
8.8135e-06
8.8379e-06
8.8379e-06
8.8623e-06
8.8379e-06
8.8623e-06
8.8379e-06
8.8623e-06
8.8379e-06
8.8623e-06
8.8379e-06
8.8623e-06
8.8379e-06
8.8623e-06
8.8379e-06
8.8623e-06
8.8379e-06
8.8623e-06
8.8379e-06
8.8623e-06
8.8379e-06
8.8623e-06
8.8379e-06
8.8623e-06
8.8379e-06
8.8623e-06
8.8379e-06
8.8623e-06
8.8379e-06
8.8623e-06
8.8135e-06
8.8623e-06
8.8379e-06
8.8623e-06
8.8379e-06
8.8379e-06
8.8135e-06
8.8379e-06
8.8135e-06
8.8379e-06
8.8135e-06
8.8379e-06
8.8135e-06
8.8379e-06
8.8135e-06
8.8379e-06
8.7891e-06
8.8135e-06
8.7891e-06
8.8135e-06
8.7891e-06
8.8135e-06
8.7891e-06
8.8135e-06
8.7891e-06
8.7891e-06
8.7891e-06
8.7891e-06
8.7646e-06
8.7891e-06
8.7891e-06
8.7891e-06
8.7891e-06
8.8135e-06
8.7891e-06
8.7891e-06
8.7891e-06
8.8135e-06
8.7891e-06
8.8135e-06
8.7891e-06
8.8135e-06
8.7891e-06
8.8135e-06
8.7891e-06
8.8135e-06
8.7891e-06
8.8135e-06
8.7891e-06
8.8135e-06
8.7891e-06
8.8135e-06
8.7891e-06
8.8135e-06
8.8135e-06
8.8135e-06
8.8135e-06
8.8379e-06
8.8135e-06
8.8379e-06
8.8135e-06
8.8379e-06
8.8135e-06
8.8379e-06
8.8135e-06
8.8623e-06
8.8135e-06
8.8623e-06
8.8379e-06
8.8623e-06
8.8379e-06
8.8623e-06
8.8379e-06
8.8623e-06
8.8379e-06
8.8623e-06
8.8379e-06
8.8623e-06
8.8379e-06
8.8867e-06
8.8623e-06
8.8623e-06
8.8623e-06
8.8623e-06
8.8623e-06
8.8867e-06
8.8623e-06
8.8867e-06
8.8867e-06
8.8867e-06
8.8867e-06
8.8867e-06
8.8867e-06
8.8867e-06
8.8867e-06
8.8867e-06
8.8867e-06
8.8867e-06
8.8867e-06
8.8867e-06
8.8867e-06
8.8867e-06
8.8867e-06
8.8867e-06
8.8867e-06
8.8867e-06
8.8867e-06
8.8867e-06
8.8867e-06
8.8867e-06
8.8623e-06
8.8867e-06
8.8867e-06
8.8867e-06
8.8623e-06
8.8867e-06
8.8623e-06
8.8867e-06
8.8623e-06
8.8867e-06
8.8623e-06
8.8623e-06
8.8623e-06
8.8623e-06
8.8623e-06
8.8623e-06
8.8623e-06
8.8623e-06
8.8379e-06
8.8623e-06
8.8379e-06
8.8379e-06
8.8379e-06
8.8379e-06
8.8135e-06
8.8379e-06
8.8135e-06
8.8135e-06
8.8135e-06
8.8135e-06
8.8135e-06
8.8135e-06
8.8135e-06
8.8135e-06
8.8135e-06
8.8135e-06
8.7891e-06
8.8135e-06
8.7891e-06
8.8135e-06
8.7891e-06
8.7891e-06
8.7891e-06
8.7891e-06
8.7646e-06
8.7891e-06
8.7646e-06
8.7891e-06
8.7646e-06
8.7646e-06
8.7646e-06
8.7646e-06
8.7402e-06
8.7646e-06
8.7402e-06
8.7402e-06
8.7402e-06
8.7402e-06
8.7402e-06
8.7402e-06
8.7158e-06
8.7402e-06
8.7158e-06
8.7402e-06
8.7158e-06
8.7402e-06
8.7158e-06
8.7158e-06
8.6914e-06
8.6914e-06
8.6914e-06
8.6914e-06
8.6914e-06
8.6914e-06
8.667e-06
8.6914e-06
8.667e-06
8.667e-06
8.667e-06
8.667e-06
8.667e-06
8.667e-06
8.667e-06
8.667e-06
8.667e-06
8.6426e-06
8.6426e-06
8.6426e-06
8.6182e-06
8.6426e-06
8.6182e-06
8.6182e-06
8.6182e-06
8.6182e-06
8.5937e-06
8.5937e-06
8.5937e-06
8.5937e-06
8.5937e-06
8.5937e-06
8.5693e-06
8.5693e-06
8.5693e-06
8.5693e-06
8.5449e-06
8.5693e-06
8.5449e-06
8.5693e-06
8.5449e-06
8.5449e-06
8.5205e-06
8.5449e-06
8.5205e-06
8.5205e-06
8.4961e-06
8.5205e-06
8.4961e-06
8.4961e-06
8.4961e-06
8.4961e-06
8.4717e-06
8.4961e-06
8.4717e-06
8.4961e-06
8.4717e-06
8.4717e-06
8.4717e-06
8.4717e-06
8.4473e-06
8.4473e-06
8.4229e-06
8.4473e-06
8.4229e-06
8.4229e-06
8.4229e-06
8.4229e-06
8.4229e-06
8.4229e-06
8.3984e-06
8.4229e-06
8.3984e-06
8.3984e-06
8.3984e-06
8.3984e-06
8.3984e-06
8.3984e-06
8.374e-06
8.3984e-06
8.374e-06
8.374e-06
8.374e-06
8.374e-06
8.3496e-06
8.374e-06
8.3496e-06
8.3496e-06
8.3496e-06
8.3496e-06
8.3252e-06
8.3496e-06
8.3252e-06
8.3252e-06
8.3008e-06
8.3252e-06
8.3008e-06
8.3252e-06
8.3008e-06
8.3252e-06
8.3008e-06
8.3008e-06
8.2764e-06
8.3008e-06
8.2764e-06
8.2764e-06
8.2764e-06
8.2764e-06
8.2764e-06
8.2764e-06
8.2764e-06
8.2764e-06
8.2764e-06
8.2764e-06
8.252e-06
8.2764e-06
8.252e-06
8.252e-06
8.252e-06
8.252e-06
8.2275e-06
8.252e-06
8.2275e-06
8.252e-06
8.2275e-06
8.252e-06
8.2275e-06
8.252e-06
8.2275e-06
8.252e-06
8.2275e-06
8.252e-06
8.2275e-06
8.252e-06
8.2275e-06
8.252e-06
8.2275e-06
8.2275e-06
8.2275e-06
8.2275e-06
8.2031e-06
8.2275e-06
8.2031e-06
8.2275e-06
8.2031e-06
8.2031e-06
8.2031e-06
8.2275e-06
8.2031e-06
8.2031e-06
8.2031e-06
8.2031e-06
8.2031e-06
8.2031e-06
8.2031e-06
8.2031e-06
8.1787e-06
8.2031e-06
8.1787e-06
8.2031e-06
8.1787e-06
8.2031e-06
8.1787e-06
8.2031e-06
8.1787e-06
8.2031e-06
8.1543e-06
8.2031e-06
8.1543e-06
8.2031e-06
8.1543e-06
8.1787e-06
8.1543e-06
8.1787e-06
8.1543e-06
8.1787e-06
8.1543e-06
8.1787e-06
8.1543e-06
8.1787e-06
8.1543e-06
8.1787e-06
8.1543e-06
8.1787e-06
8.1543e-06
8.1787e-06
8.1543e-06
8.1787e-06
8.1543e-06
8.1543e-06
8.1299e-06
8.1787e-06
8.1299e-06
8.1543e-06
8.1299e-06
8.1543e-06
8.1299e-06
8.1543e-06
8.1299e-06
8.1543e-06
8.1299e-06
8.1543e-06
8.1055e-06
8.1543e-06
8.1299e-06
8.1543e-06
8.1299e-06
8.1543e-06
8.1055e-06
8.1543e-06
8.1055e-06
8.1543e-06
8.1055e-06
8.1543e-06
8.1055e-06
8.1543e-06
8.1055e-06
8.1543e-06
8.1055e-06
8.1543e-06
8.1055e-06
8.1543e-06
8.1055e-06
8.1543e-06
8.1055e-06
8.1543e-06
8.1055e-06
8.1543e-06
8.1055e-06
8.1543e-06
8.1055e-06
8.1543e-06
8.1055e-06
8.1299e-06
8.1055e-06
8.1543e-06
8.1055e-06
8.1543e-06
8.1055e-06
8.1543e-06
8.1055e-06
8.1299e-06
8.1055e-06
8.1543e-06
8.1055e-06
8.1299e-06
8.1055e-06
8.1299e-06
8.1055e-06
8.1299e-06
8.1055e-06
8.1299e-06
8.1055e-06
8.1299e-06
8.1055e-06
8.1299e-06
8.1055e-06
8.1299e-06
8.1055e-06
8.1299e-06
8.0811e-06
8.1055e-06
8.0811e-06
8.1299e-06
8.0811e-06
8.1055e-06
8.0811e-06
8.1299e-06
8.0811e-06
8.1055e-06
8.0811e-06
8.1055e-06
8.0811e-06
8.1055e-06
8.0811e-06
8.1055e-06
8.0811e-06
8.1055e-06
8.0811e-06
8.1055e-06
8.0811e-06
8.1055e-06
8.0811e-06
8.1055e-06
8.0811e-06
8.1055e-06
8.0811e-06
8.1055e-06
8.0566e-06
8.1055e-06
8.0566e-06
8.1055e-06
8.0566e-06
8.1055e-06
8.0566e-06
8.0811e-06
8.0566e-06
8.0811e-06
8.0566e-06
8.0811e-06
8.0566e-06
8.0811e-06
8.0566e-06
8.0811e-06
8.0566e-06
8.0811e-06
8.0566e-06
8.0811e-06
8.0566e-06
8.0811e-06
8.0322e-06
8.0811e-06
8.0322e-06
8.0811e-06
8.0322e-06
8.0811e-06
8.0322e-06
8.0811e-06
8.0322e-06
8.0566e-06
8.0322e-06
8.0566e-06
8.0322e-06
8.0566e-06
8.0322e-06
8.0566e-06
8.0322e-06
8.0566e-06
8.0322e-06
8.0566e-06
8.0078e-06
8.0566e-06
8.0078e-06
8.0322e-06
8.0078e-06
8.0566e-06
8.0078e-06
8.0322e-06
8.0078e-06
8.0322e-06
8.0078e-06
8.0322e-06
8.0078e-06
8.0322e-06
8.0078e-06
8.0322e-06
8.0078e-06
8.0322e-06
8.0078e-06
8.0322e-06
7.9834e-06
8.0322e-06
8.0078e-06
8.0322e-06
7.9834e-06
8.0322e-06
8.0078e-06
8.0078e-06
8.0078e-06
8.0322e-06
8.0078e-06
8.0078e-06
8.0078e-06
8.0078e-06
7.9834e-06
8.0078e-06
8.0078e-06
8.0078e-06
8.0078e-06
8.0078e-06
7.9834e-06
8.0078e-06
7.9834e-06
8.0078e-06
8.0078e-06
8.0078e-06
7.9834e-06
8.0078e-06
7.9834e-06
7.9834e-06
7.9834e-06
7.9834e-06
7.9834e-06
7.9834e-06
7.9834e-06
7.9834e-06
7.9834e-06
7.9834e-06
7.9834e-06
7.9834e-06
7.9834e-06
7.9834e-06
7.9834e-06
7.9834e-06
7.9834e-06
7.9834e-06
7.9834e-06
7.9834e-06
7.9834e-06
7.9834e-06
7.9834e-06
7.9834e-06
7.959e-06
7.9834e-06
7.959e-06
7.9834e-06
7.959e-06
7.9834e-06
7.959e-06
7.9834e-06
7.959e-06
7.9834e-06
7.959e-06
7.9834e-06
7.959e-06
7.9834e-06
7.9346e-06
7.9834e-06
7.959e-06
7.9834e-06
7.959e-06
7.959e-06
7.9346e-06
7.9834e-06
7.9346e-06
7.959e-06
7.9346e-06
7.9834e-06
7.9346e-06
7.959e-06
7.9346e-06
7.9834e-06
7.9346e-06
7.9834e-06
7.9346e-06
7.959e-06
7.9346e-06
7.9834e-06
7.959e-06
7.959e-06
7.959e-06
7.959e-06
7.9346e-06
7.9834e-06
7.9346e-06
7.9834e-06
7.9346e-06
7.959e-06
7.9346e-06
7.959e-06
7.9346e-06
7.959e-06
7.9346e-06
7.959e-06
7.9346e-06
7.959e-06
7.9346e-06
7.959e-06
7.9346e-06
7.959e-06
7.9346e-06
7.959e-06
7.9346e-06
7.959e-06
7.9346e-06
7.959e-06
7.9346e-06
7.959e-06
7.9346e-06
7.959e-06
7.9346e-06
7.959e-06
7.9346e-06
7.9346e-06
7.9346e-06
7.959e-06
7.9346e-06
7.9346e-06
7.9346e-06
7.9346e-06
7.9102e-06
7.9346e-06
7.9346e-06
7.9346e-06
7.9102e-06
7.9346e-06
7.9102e-06
7.9346e-06
7.9102e-06
7.9346e-06
7.9102e-06
7.9346e-06
7.9102e-06
7.9346e-06
7.9102e-06
7.9346e-06
7.9102e-06
7.9346e-06
7.9102e-06
7.9346e-06
7.9102e-06
7.9102e-06
7.9102e-06
7.9346e-06
7.9102e-06
7.9102e-06
7.9102e-06
7.9346e-06
7.9102e-06
7.9102e-06
7.8857e-06
7.9102e-06
7.9102e-06
7.9102e-06
7.8857e-06
7.9102e-06
7.9102e-06
7.9102e-06
7.8857e-06
7.9346e-06
7.8857e-06
7.9102e-06
7.8857e-06
7.9102e-06
7.8857e-06
7.9102e-06
7.8857e-06
7.9102e-06
7.8857e-06
7.9102e-06
7.8857e-06
7.9102e-06
7.8857e-06
7.9102e-06
7.8857e-06
7.9102e-06
7.8857e-06
7.9102e-06
7.8857e-06
7.9102e-06
7.8857e-06
7.9102e-06
7.8857e-06
7.9102e-06
7.8857e-06
7.9102e-06
7.8857e-06
7.9102e-06
7.8857e-06
7.9102e-06
7.8857e-06
7.9102e-06
7.8857e-06
7.8857e-06
7.8857e-06
7.9102e-06
7.8857e-06
7.9102e-06
7.8857e-06
7.9102e-06
7.8857e-06
7.8857e-06
7.8857e-06
7.9102e-06
7.8857e-06
7.9102e-06
7.8857e-06
7.8857e-06
7.8857e-06
7.8857e-06
7.8857e-06
7.8857e-06
7.8857e-06
7.8857e-06
7.8857e-06
7.8857e-06
7.8857e-06
7.8857e-06
7.8613e-06
7.8857e-06
7.8857e-06
7.8857e-06
7.8857e-06
7.8857e-06
7.8857e-06
7.8857e-06
7.8857e-06
7.8857e-06
7.8613e-06
7.8857e-06
7.8857e-06
7.8857e-06
7.8613e-06
7.8857e-06
7.8613e-06
7.8857e-06
7.8613e-06
7.8857e-06
7.8613e-06
7.8857e-06
7.8613e-06
7.8857e-06
7.8613e-06
7.8857e-06
7.8613e-06
7.8857e-06
7.8613e-06
7.8857e-06
7.8613e-06
7.8857e-06
7.8613e-06
7.8857e-06
7.8613e-06
7.8613e-06
7.8613e-06
7.8857e-06
7.8613e-06
7.8613e-06
7.8613e-06
7.8857e-06
7.8613e-06
7.8613e-06
7.8369e-06
7.8613e-06
7.8369e-06
7.8613e-06
7.8613e-06
7.8613e-06
7.8613e-06
7.8613e-06
7.8613e-06
7.8613e-06
7.8369e-06
7.8613e-06
7.8369e-06
7.8613e-06
7.8369e-06
7.8613e-06
7.8369e-06
7.8613e-06
7.8369e-06
7.8613e-06
7.8369e-06
7.8613e-06
7.8369e-06
7.8613e-06
7.8369e-06
7.8613e-06
7.8369e-06
7.8613e-06
7.8369e-06
7.8613e-06
7.8369e-06
7.8369e-06
7.8369e-06
7.8613e-06
7.8369e-06
7.8369e-06
7.8369e-06
7.8613e-06
7.8369e-06
7.8369e-06
7.8369e-06
7.8369e-06
7.8369e-06
7.8369e-06
7.8369e-06
7.8369e-06
7.8369e-06
7.8369e-06
7.8369e-06
7.8369e-06
7.8125e-06
7.8369e-06
7.8125e-06
7.8369e-06
7.8125e-06
7.8369e-06
7.8125e-06
7.8369e-06
7.8369e-06
7.8369e-06
7.8125e-06
7.8369e-06
7.8369e-06
7.8369e-06
7.8369e-06
7.8369e-06
7.8369e-06
7.8369e-06
7.8125e-06
7.8369e-06
7.8125e-06
7.8369e-06
7.8125e-06
7.8369e-06
7.8125e-06
7.8369e-06
7.8125e-06
7.8369e-06
7.8125e-06
7.8369e-06
7.8125e-06
7.8369e-06
7.8125e-06
7.8369e-06
7.8125e-06
7.8369e-06
7.8125e-06
7.8369e-06
7.8125e-06
7.8125e-06
7.8125e-06
7.8125e-06
7.8125e-06
7.8125e-06
7.8125e-06
7.8125e-06
7.8125e-06
7.8369e-06
7.8125e-06
7.8125e-06
7.8125e-06
7.8369e-06
7.8125e-06
7.8125e-06
7.8125e-06
7.8369e-06
7.8125e-06
7.8125e-06
7.8125e-06
7.8125e-06
7.8125e-06
7.8125e-06
7.8125e-06
7.8125e-06
7.8125e-06
7.8125e-06
7.8125e-06
7.8125e-06
7.8125e-06
7.8125e-06
7.8125e-06
7.8369e-06
7.8125e-06
7.8369e-06
7.8125e-06
7.8369e-06
7.8125e-06
7.8369e-06
7.8125e-06
7.8369e-06
7.8125e-06
7.8125e-06
7.8125e-06
7.8369e-06
7.8125e-06
7.8125e-06
7.8125e-06
7.8369e-06
7.8125e-06
7.8125e-06
7.7881e-06
7.8125e-06
7.7881e-06
7.8125e-06
7.8125e-06
7.8125e-06
7.8125e-06
7.8125e-06
7.8125e-06
7.8125e-06
7.8125e-06
7.8125e-06
7.8125e-06
7.8125e-06
7.8125e-06
7.8125e-06
7.8125e-06
7.8369e-06
7.8125e-06
7.8125e-06
7.8125e-06
7.8369e-06
7.8125e-06
7.8125e-06
7.8125e-06
7.8369e-06
7.8125e-06
7.8369e-06
7.8125e-06
7.8369e-06
7.8125e-06
7.8125e-06
7.8125e-06
7.8369e-06
7.8125e-06
7.8125e-06
7.8125e-06
7.8369e-06
7.8125e-06
7.8369e-06
7.8125e-06
7.8369e-06
7.8125e-06
7.8369e-06
7.8125e-06
7.8369e-06
7.8125e-06
7.8369e-06
7.8125e-06
7.8369e-06
7.8125e-06
7.8369e-06
7.8369e-06
7.8369e-06
7.8369e-06
7.8369e-06
7.8369e-06
7.8613e-06
7.8369e-06
7.8369e-06
7.8369e-06
7.8613e-06
7.8369e-06
7.8613e-06
7.8369e-06
7.8613e-06
7.8369e-06
7.8613e-06
7.8369e-06
7.8613e-06
7.8613e-06
7.8857e-06
7.8613e-06
7.8857e-06
7.8613e-06
7.8857e-06
7.8613e-06
7.8857e-06
7.8613e-06
7.8857e-06
7.8613e-06
7.8857e-06
7.8613e-06
7.8857e-06
7.8857e-06
7.8857e-06
7.8857e-06
7.8857e-06
7.8857e-06
7.8857e-06
7.8857e-06
7.8857e-06
7.8857e-06
7.8857e-06
7.8857e-06
7.8857e-06
7.8857e-06
7.8857e-06
7.8857e-06
7.8857e-06
7.8857e-06
7.9102e-06
7.8857e-06
7.9102e-06
7.8857e-06
7.9102e-06
7.8857e-06
7.9102e-06
7.8857e-06
7.9102e-06
7.8857e-06
7.9102e-06
7.9102e-06
7.9102e-06
7.9102e-06
7.9102e-06
7.9102e-06
7.9102e-06
7.9102e-06
7.9102e-06
7.9102e-06
7.9102e-06
7.9102e-06
7.9102e-06
7.9102e-06
7.9346e-06
7.9102e-06
7.9102e-06
7.9102e-06
7.9346e-06
7.9102e-06
7.9346e-06
7.9102e-06
7.9346e-06
7.9102e-06
7.9346e-06
7.9102e-06
7.9346e-06
7.9102e-06
7.9346e-06
7.9102e-06
7.9346e-06
7.9102e-06
7.9346e-06
7.9102e-06
7.9346e-06
7.9346e-06
7.9346e-06
7.9102e-06
7.9346e-06
7.9346e-06
7.9346e-06
7.9346e-06
7.959e-06
7.9346e-06
7.9346e-06
7.9346e-06
7.959e-06
7.9346e-06
7.959e-06
7.9346e-06
7.959e-06
7.9346e-06
7.959e-06
7.9346e-06
7.959e-06
7.9346e-06
7.959e-06
7.959e-06
7.959e-06
7.959e-06
7.959e-06
7.959e-06
7.9834e-06
7.959e-06
7.9834e-06
7.959e-06
7.9834e-06
7.9834e-06
7.9834e-06
7.9834e-06
7.9834e-06
7.9834e-06
7.9834e-06
7.9834e-06
7.9834e-06
7.9834e-06
7.9834e-06
7.9834e-06
8.0078e-06
7.9834e-06
8.0078e-06
7.9834e-06
8.0078e-06
7.9834e-06
8.0078e-06
8.0078e-06
8.0078e-06
8.0078e-06
8.0322e-06
8.0078e-06
8.0322e-06
8.0078e-06
8.0322e-06
8.0322e-06
8.0322e-06
8.0322e-06
8.0566e-06
8.0322e-06
8.0566e-06
8.0322e-06
8.0566e-06
8.0566e-06
8.0566e-06
8.0566e-06
8.0811e-06
8.0566e-06
8.0811e-06
8.0566e-06
8.0811e-06
8.0566e-06
8.0811e-06
8.0566e-06
8.0811e-06
8.0811e-06
8.0811e-06
8.0811e-06
8.0811e-06
8.0811e-06
8.1055e-06
8.0811e-06
8.1055e-06
8.0811e-06
8.1055e-06
8.1055e-06
8.1055e-06
8.1055e-06
8.1055e-06
8.1055e-06
8.1055e-06
8.1055e-06
8.1299e-06
8.1055e-06
8.1299e-06
8.1055e-06
8.1299e-06
8.1055e-06
8.1299e-06
8.1055e-06
8.1299e-06
8.1299e-06
8.1299e-06
8.1055e-06
8.1299e-06
8.1299e-06
8.1299e-06
8.1299e-06
8.1543e-06
8.1299e-06
8.1543e-06
8.1299e-06
8.1543e-06
8.1299e-06
8.1543e-06
8.1299e-06
8.1543e-06
8.1543e-06
8.1543e-06
8.1543e-06
8.1543e-06
8.1543e-06
8.1543e-06
8.1543e-06
8.1543e-06
8.1543e-06
8.1543e-06
8.1543e-06
8.1787e-06
8.1543e-06
8.1787e-06
8.1543e-06
8.1787e-06
8.1543e-06
8.1787e-06
8.1543e-06
8.1787e-06
8.1543e-06
8.1787e-06
8.1543e-06
8.1787e-06
8.1543e-06
8.1787e-06
8.1543e-06
8.1787e-06
8.1543e-06
8.1787e-06
8.1543e-06
8.1787e-06
8.1543e-06
8.1787e-06
8.1543e-06
8.1787e-06
8.1543e-06
8.1543e-06
8.1543e-06
8.1787e-06
8.1543e-06
8.1787e-06
8.1543e-06
8.1787e-06
8.1543e-06
8.1787e-06
8.1543e-06
8.1787e-06
8.1543e-06
8.1787e-06
8.1543e-06
8.1787e-06
8.1543e-06
8.1543e-06
8.1543e-06
8.1787e-06
8.1543e-06
8.1543e-06
8.1543e-06
8.1543e-06
8.1543e-06
8.1543e-06
8.1543e-06
8.1543e-06
8.1543e-06
8.1543e-06
8.1543e-06
8.1543e-06
8.1299e-06
8.1543e-06
8.1299e-06
8.1543e-06
8.1299e-06
8.1543e-06
8.1299e-06
8.1543e-06
8.1299e-06
8.1543e-06
8.1299e-06
8.1543e-06
8.1299e-06
8.1299e-06
8.1055e-06
8.1543e-06
8.1055e-06
8.1299e-06
8.1055e-06
8.1299e-06
8.1055e-06
8.1299e-06
8.1055e-06
8.1299e-06
8.1055e-06
8.1055e-06
8.1055e-06
8.1055e-06
8.1055e-06
8.1055e-06
8.1055e-06
8.1055e-06
8.0811e-06
8.1055e-06
8.0811e-06
8.1055e-06
8.0811e-06
8.1055e-06
8.0811e-06
8.1055e-06
8.0811e-06
8.0811e-06
8.0811e-06
8.0811e-06
8.0811e-06
8.0811e-06
8.0811e-06
8.0811e-06
8.0811e-06
8.0811e-06
8.0811e-06
8.0811e-06
8.0566e-06
8.0811e-06
8.0566e-06
8.0811e-06
8.0566e-06
8.0811e-06
8.0566e-06
8.0811e-06
8.0566e-06
8.0811e-06
8.0322e-06
8.0566e-06
8.0566e-06
8.0566e-06
8.0566e-06
8.0566e-06
8.0566e-06
8.0566e-06
8.0322e-06
8.0566e-06
8.0322e-06
8.0566e-06
8.0322e-06
8.0566e-06
8.0322e-06
8.0566e-06
8.0322e-06
8.0566e-06
8.0322e-06
8.0322e-06
8.0322e-06
8.0322e-06
8.0322e-06
8.0322e-06
8.0322e-06
8.0322e-06
8.0322e-06
8.0322e-06
8.0078e-06
8.0322e-06
8.0078e-06
8.0322e-06
8.0322e-06
8.0322e-06
8.0078e-06
8.0322e-06
8.0078e-06
8.0322e-06
8.0078e-06
8.0322e-06
8.0078e-06
8.0322e-06
8.0078e-06
8.0322e-06
8.0078e-06
8.0322e-06
8.0078e-06
8.0322e-06
7.9834e-06
8.0322e-06
8.0078e-06
8.0078e-06
7.9834e-06
8.0078e-06
7.9834e-06
8.0078e-06
7.9834e-06
8.0078e-06
7.9834e-06
8.0078e-06
7.9834e-06
8.0078e-06
8.0078e-06
8.0078e-06
7.9834e-06
8.0078e-06
7.9834e-06
8.0078e-06
7.9834e-06
8.0078e-06
7.9834e-06
8.0078e-06
7.9834e-06
8.0078e-06
7.9834e-06
8.0078e-06
7.9834e-06
8.0078e-06
7.9834e-06
8.0078e-06
7.9834e-06
8.0078e-06
7.9834e-06
7.9834e-06
7.9834e-06
8.0078e-06
7.9834e-06
7.9834e-06
7.9834e-06
8.0078e-06
7.9834e-06
7.9834e-06
7.9834e-06
8.0078e-06
7.9834e-06
7.9834e-06
7.9834e-06
7.9834e-06
7.9834e-06
7.9834e-06
7.9834e-06
7.9834e-06
7.9834e-06
7.9834e-06
7.9834e-06
7.9834e-06
7.9834e-06
7.9834e-06
7.9834e-06
7.9834e-06
7.9834e-06
7.9834e-06
7.959e-06
7.9834e-06
7.959e-06
7.9834e-06
7.959e-06
7.9834e-06
7.959e-06
7.9834e-06
7.959e-06
7.9834e-06
7.959e-06
7.9834e-06
7.9834e-06
7.9834e-06
7.9834e-06
7.9834e-06
7.9834e-06
7.9834e-06
7.9834e-06
7.9834e-06
7.9834e-06
7.9834e-06
7.9834e-06
7.9834e-06
7.9834e-06
7.9834e-06
7.9834e-06
7.9834e-06
7.9834e-06
8.0078e-06
7.9834e-06
8.0078e-06
7.9834e-06
8.0078e-06
7.9834e-06
8.0078e-06
8.0078e-06
8.0322e-06
8.0078e-06
8.0322e-06
8.0078e-06
8.0566e-06
8.0322e-06
8.0566e-06
8.0322e-06
8.0566e-06
8.0566e-06
8.0811e-06
8.0566e-06
8.0811e-06
8.0811e-06
8.1055e-06
8.0811e-06
8.1055e-06
8.0811e-06
8.1055e-06
8.1055e-06
8.1299e-06
8.1299e-06
8.1299e-06
8.1299e-06
8.1543e-06
8.1543e-06
8.1543e-06
8.1543e-06
8.1787e-06
8.1787e-06
8.1787e-06
8.1787e-06
8.2031e-06
8.2031e-06
8.2031e-06
8.2031e-06
8.2275e-06
8.2275e-06
8.2275e-06
8.2275e-06
8.252e-06
8.252e-06
8.252e-06
8.252e-06
8.2764e-06
8.2764e-06
8.2764e-06
8.2764e-06
8.3008e-06
8.2764e-06
8.3008e-06
8.3008e-06
8.3252e-06
8.3008e-06
8.3252e-06
8.3252e-06
8.3496e-06
8.3252e-06
8.3496e-06
8.3496e-06
8.374e-06
8.3496e-06
8.374e-06
8.3496e-06
8.374e-06
8.3496e-06
8.3984e-06
8.374e-06
8.3984e-06
8.3984e-06
8.3984e-06
8.3984e-06
8.3984e-06
8.3984e-06
8.3984e-06
8.3984e-06
8.3984e-06
8.3984e-06
8.3984e-06
8.3984e-06
8.4229e-06
8.3984e-06
8.4229e-06
8.3984e-06
8.4229e-06
8.3984e-06
8.4229e-06
8.4229e-06
8.4229e-06
8.4229e-06
8.4229e-06
8.4229e-06
8.4473e-06
8.4229e-06
8.4473e-06
8.4229e-06
8.4473e-06
8.4229e-06
8.4473e-06
8.4229e-06
8.4473e-06
8.4229e-06
8.4229e-06
8.4229e-06
8.4473e-06
8.4229e-06
8.4473e-06
8.4229e-06
8.4473e-06
8.4229e-06
8.4473e-06
8.4229e-06
8.4473e-06
8.4229e-06
8.4473e-06
8.4229e-06
8.4473e-06
8.3984e-06
8.4229e-06
8.4229e-06
8.4229e-06
8.4229e-06
8.4229e-06
8.3984e-06
8.4229e-06
8.3984e-06
8.4229e-06
8.3984e-06
8.4229e-06
8.3984e-06
8.3984e-06
8.3984e-06
8.3984e-06
8.374e-06
8.3984e-06
8.374e-06
8.3984e-06
8.374e-06
8.3984e-06
8.374e-06
8.374e-06
8.374e-06
8.374e-06
8.3496e-06
8.374e-06
8.3496e-06
8.374e-06
8.3496e-06
8.374e-06
8.3496e-06
8.3496e-06
8.3496e-06
8.3496e-06
8.3496e-06
8.3496e-06
8.3252e-06
8.3496e-06
8.3252e-06
8.3496e-06
8.3252e-06
8.3252e-06
8.3008e-06
8.3252e-06
8.3008e-06
8.3252e-06
8.3008e-06
8.3008e-06
8.2764e-06
8.3008e-06
8.2764e-06
8.2764e-06
8.2764e-06
8.3008e-06
8.2764e-06
8.2764e-06
8.2764e-06
8.2764e-06
8.2764e-06
8.2764e-06
8.252e-06
8.2764e-06
8.252e-06
8.2764e-06
8.252e-06
8.252e-06
8.252e-06
8.252e-06
8.2275e-06
8.252e-06
8.2275e-06
8.252e-06
8.2275e-06
8.252e-06
8.2275e-06
8.252e-06
8.2275e-06
8.2275e-06
8.2275e-06
8.2275e-06
8.2275e-06
8.2275e-06
8.2275e-06
8.2275e-06
8.2275e-06
8.2275e-06
8.2275e-06
8.2275e-06
8.2031e-06
8.2275e-06
8.2275e-06
8.2275e-06
8.2275e-06
8.2275e-06
8.2275e-06
8.2275e-06
8.2275e-06
8.2275e-06
8.2275e-06
8.252e-06
8.2275e-06
8.252e-06
8.2275e-06
8.252e-06
8.2275e-06
8.252e-06
8.2275e-06
8.252e-06
8.2275e-06
8.252e-06
8.2275e-06
8.252e-06
8.252e-06
8.252e-06
8.252e-06
8.252e-06
8.252e-06
8.2764e-06
8.252e-06
8.2764e-06
8.252e-06
8.2764e-06
8.2764e-06
8.2764e-06
8.2764e-06
8.2764e-06
8.2764e-06
8.3008e-06
8.2764e-06
8.3008e-06
8.2764e-06
8.3008e-06
8.2764e-06
8.3008e-06
8.3008e-06
8.3008e-06
8.3008e-06
8.3252e-06
8.3008e-06
8.3252e-06
8.3252e-06
8.3252e-06
8.3252e-06
8.3496e-06
8.3252e-06
8.3496e-06
8.3496e-06
8.3496e-06
8.3496e-06
8.374e-06
8.3496e-06
8.374e-06
8.3496e-06
8.374e-06
8.374e-06
8.374e-06
8.374e-06
8.3984e-06
8.374e-06
8.3984e-06
8.374e-06
8.3984e-06
8.3984e-06
8.3984e-06
8.3984e-06
8.3984e-06
8.3984e-06
8.4229e-06
8.3984e-06
8.4229e-06
8.3984e-06
8.4229e-06
8.4229e-06
8.4229e-06
8.4229e-06
8.4229e-06
8.3984e-06
8.4473e-06
8.4229e-06
8.4473e-06
8.4229e-06
8.4473e-06
8.4229e-06
8.4473e-06
8.4473e-06
8.4473e-06
8.4473e-06
8.4717e-06
8.4473e-06
8.4717e-06
8.4473e-06
8.4717e-06
8.4473e-06
8.4717e-06
8.4473e-06
8.4717e-06
8.4473e-06
8.4717e-06
8.4473e-06
8.4717e-06
8.4473e-06
8.4717e-06
8.4473e-06
8.4717e-06
8.4473e-06
8.4717e-06
8.4473e-06
8.4717e-06
8.4473e-06
8.4717e-06
8.4473e-06
8.4717e-06
8.4717e-06
8.4717e-06
8.4473e-06
8.4717e-06
8.4717e-06
8.4717e-06
8.4717e-06
8.4717e-06
8.4473e-06
8.4717e-06
8.4717e-06
8.4717e-06
8.4473e-06
8.4717e-06
8.4473e-06
8.4717e-06
8.4473e-06
8.4717e-06
8.4473e-06
8.4473e-06
8.4473e-06
8.4473e-06
8.4473e-06
8.4473e-06
8.4229e-06
8.4473e-06
8.4229e-06
8.4229e-06
8.4229e-06
8.4229e-06
8.3984e-06
8.4229e-06
8.3984e-06
8.4229e-06
8.3984e-06
8.3984e-06
8.3984e-06
8.3984e-06
8.3984e-06
8.3984e-06
8.374e-06
8.3984e-06
8.374e-06
8.3984e-06
8.374e-06
8.374e-06
8.374e-06
8.374e-06
8.3496e-06
8.374e-06
8.3496e-06
8.374e-06
8.3496e-06
8.3496e-06
8.3252e-06
8.3496e-06
8.3252e-06
8.3252e-06
8.3008e-06
8.3252e-06
8.3008e-06
8.3252e-06
8.3008e-06
8.3008e-06
8.3008e-06
8.3008e-06
8.2764e-06
8.3008e-06
8.2764e-06
8.2764e-06
8.2764e-06
8.2764e-06
8.2764e-06
8.2764e-06
8.252e-06
8.2764e-06
8.252e-06
8.2764e-06
8.252e-06
8.252e-06
8.2275e-06
8.252e-06
8.2275e-06
8.2275e-06
8.2275e-06
8.2275e-06
8.2031e-06
8.2275e-06
8.2031e-06
8.2031e-06
8.2031e-06
8.2031e-06
8.1787e-06
8.2031e-06
8.1787e-06
8.2031e-06
8.1787e-06
8.1787e-06
8.1787e-06
8.1787e-06
8.1787e-06
8.1787e-06
8.1543e-06
8.1787e-06
8.1543e-06
8.1787e-06
8.1543e-06
8.1543e-06
8.1543e-06
8.1543e-06
8.1299e-06
8.1543e-06
8.1299e-06
8.1543e-06
8.1299e-06
8.1543e-06
8.1299e-06
8.1299e-06
8.1055e-06
8.1299e-06
8.1055e-06
8.1055e-06
8.1055e-06
8.1055e-06
8.1055e-06
8.1055e-06
8.1055e-06
8.1055e-06
8.0811e-06
8.1055e-06
8.0811e-06
8.1055e-06
8.0811e-06
8.1055e-06
8.0811e-06
8.0811e-06
8.0566e-06
8.0811e-06
8.0566e-06
8.0811e-06
8.0566e-06
8.0811e-06
8.0566e-06
8.0566e-06
8.0322e-06
8.0566e-06
8.0322e-06
8.0566e-06
8.0322e-06
8.0566e-06
8.0322e-06
8.0322e-06
8.0322e-06
8.0322e-06
8.0078e-06
8.0322e-06
8.0078e-06
8.0322e-06
8.0078e-06
8.0322e-06
8.0078e-06
8.0078e-06
7.9834e-06
8.0078e-06
7.9834e-06
7.9834e-06
7.9834e-06
7.9834e-06
7.9834e-06
7.9834e-06
7.9834e-06
7.9834e-06
7.9834e-06
7.9834e-06
7.9834e-06
7.9834e-06
7.959e-06
7.9834e-06
7.959e-06
7.9834e-06
7.959e-06
7.9834e-06
7.959e-06
7.959e-06
7.959e-06
7.959e-06
7.959e-06
7.959e-06
7.9346e-06
7.959e-06
7.9346e-06
7.959e-06
7.9346e-06
7.959e-06
7.9346e-06
7.959e-06
7.9346e-06
7.959e-06
7.9346e-06
7.9346e-06
7.9102e-06
7.9346e-06
7.9102e-06
7.9102e-06
7.9102e-06
7.9346e-06
7.9102e-06
7.9102e-06
7.9102e-06
7.9346e-06
7.9102e-06
7.9102e-06
7.9102e-06
7.9102e-06
7.8857e-06
7.9102e-06
7.8857e-06
7.9102e-06
7.8857e-06
7.8857e-06
7.8857e-06
7.9102e-06
7.8857e-06
7.8857e-06
7.8857e-06
7.8857e-06
7.8857e-06
7.8857e-06
7.8613e-06
7.8857e-06
7.8857e-06
7.8857e-06
7.8613e-06
7.8857e-06
7.8613e-06
7.8857e-06
7.8613e-06
7.8857e-06
7.8857e-06
7.8857e-06
7.8857e-06
7.8857e-06
7.8857e-06
7.8857e-06
7.8857e-06
7.8857e-06
7.8857e-06
7.8857e-06
7.8857e-06
7.9102e-06
7.8857e-06
7.8857e-06
7.8857e-06
7.8857e-06
7.8857e-06
7.8857e-06
7.8857e-06
7.8857e-06
7.8857e-06
7.8857e-06
7.8857e-06
7.9102e-06
7.8857e-06
7.8857e-06
7.8857e-06
7.9102e-06
7.8857e-06
7.9102e-06
7.8857e-06
7.9102e-06
7.9102e-06
7.9102e-06
7.9102e-06
7.9102e-06
7.9102e-06
7.9102e-06
7.9102e-06
7.9346e-06
7.9102e-06
7.9346e-06
7.9346e-06
7.9346e-06
7.9102e-06
7.9346e-06
7.9346e-06
7.959e-06
7.9346e-06
7.9346e-06
7.9346e-06
7.959e-06
7.959e-06
7.959e-06
7.959e-06
7.9834e-06
7.959e-06
7.9834e-06
7.959e-06
7.9834e-06
7.959e-06
7.9834e-06
7.9834e-06
7.9834e-06
7.9834e-06
7.9834e-06
7.9834e-06
7.9834e-06
7.9834e-06
8.0078e-06
7.9834e-06
8.0078e-06
7.9834e-06
8.0078e-06
8.0078e-06
8.0078e-06
8.0078e-06
8.0322e-06
8.0078e-06
8.0322e-06
8.0078e-06
8.0322e-06
8.0322e-06
8.0322e-06
8.0322e-06
8.0322e-06
8.0322e-06
8.0566e-06
8.0322e-06
8.0322e-06
8.0322e-06
8.0566e-06
8.0322e-06
8.0566e-06
8.0322e-06
8.0566e-06
8.0566e-06
8.0566e-06
8.0566e-06
8.0566e-06
8.0566e-06
8.0811e-06
8.0566e-06
8.0811e-06
8.0566e-06
8.0811e-06
8.0566e-06
8.0811e-06
8.0566e-06
8.0811e-06
8.0566e-06
8.0811e-06
8.0566e-06
8.0811e-06
8.0566e-06
8.0811e-06
8.0811e-06
8.0811e-06
8.0566e-06
8.0811e-06
8.0811e-06
8.0811e-06
8.0811e-06
8.0811e-06
8.0566e-06
8.0811e-06
8.0566e-06
8.0811e-06
8.0811e-06
8.0811e-06
8.0811e-06
8.0811e-06
8.0811e-06
8.0811e-06
8.0811e-06
8.0811e-06
8.0566e-06
8.0811e-06
8.0566e-06
8.0811e-06
8.0566e-06
8.0811e-06
8.0566e-06
8.0811e-06
8.0566e-06
8.0811e-06
8.0566e-06
8.0811e-06
8.0566e-06
8.0811e-06
8.0566e-06
8.0811e-06
8.0566e-06
8.0811e-06
8.0811e-06
8.0811e-06
8.0811e-06
8.0811e-06
8.0811e-06
8.0811e-06
8.0811e-06
8.0811e-06
8.0566e-06
8.0811e-06
8.0566e-06
8.0811e-06
8.0566e-06
8.0811e-06
8.0566e-06
8.0811e-06
8.0566e-06
8.0566e-06
8.0322e-06
8.0566e-06
8.0322e-06
8.0566e-06
8.0322e-06
8.0322e-06
8.0322e-06
8.0322e-06
8.0322e-06
8.0322e-06
8.0322e-06
8.0322e-06
8.0078e-06
8.0322e-06
8.0078e-06
8.0322e-06
8.0078e-06
8.0078e-06
8.0078e-06
8.0078e-06
7.9834e-06
8.0078e-06
7.9834e-06
8.0078e-06
7.9834e-06
8.0078e-06
7.9834e-06
8.0078e-06
7.9834e-06
7.9834e-06
7.9834e-06
7.9834e-06
7.9834e-06
7.9834e-06
7.9834e-06
7.9834e-06
7.9834e-06
7.9834e-06
7.959e-06
7.9834e-06
7.959e-06
7.9834e-06
7.959e-06
7.9834e-06
7.959e-06
7.959e-06
7.959e-06
7.9834e-06
7.959e-06
7.959e-06
7.959e-06
7.959e-06
7.9346e-06
7.959e-06
7.9346e-06
7.959e-06
7.959e-06
7.959e-06
7.9346e-06
7.959e-06
7.9346e-06
7.959e-06
7.9346e-06
7.959e-06
7.9346e-06
7.9346e-06
7.9346e-06
7.959e-06
7.9346e-06
7.9346e-06
7.9102e-06
7.9346e-06
7.9346e-06
7.9346e-06
7.9102e-06
7.9346e-06
7.9102e-06
7.9346e-06
7.9102e-06
7.9346e-06
7.9102e-06
7.9346e-06
7.9102e-06
7.9346e-06
7.9102e-06
7.9346e-06
7.9102e-06
7.9346e-06
7.9102e-06
7.9346e-06
7.9102e-06
7.9102e-06
7.9102e-06
7.9346e-06
7.9102e-06
7.9102e-06
7.9102e-06
7.9102e-06
7.9102e-06
7.9102e-06
7.9102e-06
7.9102e-06
7.9102e-06
7.9102e-06
7.9102e-06
7.9102e-06
7.8857e-06
7.9102e-06
7.9102e-06
7.9102e-06
7.8857e-06
7.9102e-06
7.8857e-06
7.9102e-06
7.8857e-06
7.9102e-06
7.8857e-06
7.9102e-06
7.8857e-06
7.9102e-06
7.8857e-06
7.9102e-06
7.8857e-06
7.9102e-06
7.8857e-06
7.9102e-06
7.8857e-06
7.8857e-06
7.8857e-06
7.9102e-06
7.8857e-06
7.9102e-06
7.8857e-06
7.9102e-06
7.8857e-06
7.9102e-06
7.8857e-06
7.9102e-06
7.8857e-06
7.9102e-06
7.8857e-06
7.9102e-06
7.8857e-06
7.9102e-06
7.8857e-06
7.9102e-06
7.8857e-06
7.9102e-06
7.8857e-06
7.8857e-06
7.8857e-06
7.9102e-06
7.8857e-06
7.8857e-06
7.8857e-06
7.8857e-06
7.8857e-06
7.8857e-06
7.8857e-06
7.9102e-06
7.8857e-06
7.8857e-06
7.8857e-06
7.8857e-06
7.8857e-06
7.8857e-06
7.8857e-06
7.8857e-06
7.8857e-06
7.8857e-06
7.8857e-06
7.8857e-06
7.8613e-06
7.8857e-06
7.8613e-06
7.8857e-06
7.8613e-06
7.8857e-06
7.8613e-06
7.8857e-06
7.8613e-06
7.8857e-06
7.8613e-06
7.8857e-06
7.8613e-06
7.8613e-06
7.8369e-06
7.8613e-06
7.8613e-06
7.8613e-06
7.8613e-06
7.8613e-06
7.8613e-06
7.8613e-06
7.8369e-06
7.8613e-06
7.8369e-06
7.8613e-06
7.8369e-06
7.8613e-06
7.8369e-06
7.8369e-06
7.8369e-06
7.8613e-06
7.8369e-06
7.8369e-06
7.8369e-06
7.8369e-06
7.8369e-06
7.8369e-06
7.8369e-06
7.8369e-06
7.8369e-06
7.8369e-06
7.8369e-06
7.8369e-06
7.8125e-06
7.8369e-06
7.8125e-06
7.8369e-06
7.8125e-06
7.8369e-06
7.8125e-06
7.8369e-06
7.8125e-06
7.8369e-06
7.8125e-06
7.8369e-06
7.8125e-06
7.8125e-06
7.8125e-06
7.8369e-06
7.8125e-06
7.8125e-06
7.8125e-06
7.8125e-06
7.8125e-06
7.8125e-06
7.8125e-06
7.8125e-06
7.7881e-06
7.8125e-06
7.7881e-06
7.8125e-06
7.7881e-06
7.8125e-06
7.7881e-06
7.8125e-06
7.7881e-06
7.8125e-06
7.7881e-06
7.8125e-06
7.7881e-06
7.8125e-06
7.7881e-06
7.7881e-06
7.7881e-06
7.7881e-06
7.7881e-06
7.7881e-06
7.7881e-06
7.7881e-06
7.7881e-06
7.7881e-06
7.7881e-06
7.7881e-06
7.7881e-06
7.7881e-06
7.7881e-06
7.7881e-06
7.7881e-06
7.7881e-06
7.7881e-06
7.7881e-06
7.7881e-06
7.7881e-06
7.7881e-06
7.7881e-06
7.7881e-06
7.7881e-06
7.7881e-06
7.7881e-06
7.7881e-06
7.7881e-06
7.7881e-06
7.7881e-06
7.7881e-06
7.7881e-06
7.7881e-06
7.7881e-06
7.7881e-06
7.7881e-06
7.7881e-06
7.7881e-06
7.7881e-06
7.7881e-06
7.7881e-06
7.7881e-06
7.7881e-06
7.8125e-06
7.7881e-06
7.7881e-06
7.7881e-06
7.8125e-06
7.7881e-06
7.8125e-06
7.7881e-06
7.8125e-06
7.7881e-06
7.8125e-06
7.7881e-06
7.8125e-06
7.7881e-06
7.7881e-06
7.7881e-06
7.8125e-06
7.7881e-06
7.7881e-06
7.7881e-06
7.7881e-06
7.7881e-06
7.7881e-06
7.7881e-06
7.8125e-06
7.7881e-06
7.7881e-06
7.7881e-06
7.7881e-06
7.7881e-06
7.7881e-06
7.7881e-06
7.7881e-06
7.7881e-06
7.7881e-06
7.7881e-06
7.7881e-06
7.7881e-06
7.7881e-06
7.7881e-06
7.7881e-06
7.7881e-06
7.7881e-06
7.7881e-06
7.7881e-06
7.7881e-06
7.7881e-06
7.7881e-06
7.7881e-06
7.7881e-06
7.7881e-06
7.7881e-06
7.7881e-06
7.7881e-06
7.7881e-06
7.7881e-06
7.7881e-06
7.7881e-06
7.7881e-06
7.7881e-06
7.7881e-06
7.7881e-06
7.7881e-06
7.7881e-06
7.7881e-06
7.7881e-06
7.7881e-06
7.7881e-06
7.7881e-06
7.7881e-06
7.7881e-06
7.7881e-06
7.7881e-06
7.7881e-06
7.7881e-06
7.7881e-06
7.7881e-06
7.7881e-06
7.7881e-06
7.7881e-06
7.7881e-06
7.7881e-06
7.7881e-06
7.7881e-06
7.7881e-06
7.7881e-06
7.7881e-06
7.7881e-06
7.7881e-06
7.7881e-06
7.7881e-06
7.7881e-06
7.7881e-06
7.7881e-06
7.7881e-06
7.7637e-06
7.7881e-06
7.7881e-06
7.7881e-06
7.7881e-06
7.7881e-06
7.7637e-06
7.7881e-06
7.7637e-06
7.7881e-06
7.7637e-06
7.7881e-06
7.7881e-06
7.7881e-06
7.7637e-06
7.7881e-06
7.7637e-06
7.7881e-06
7.7637e-06
7.7881e-06
7.7637e-06
7.7881e-06
7.7637e-06
7.7637e-06
7.7637e-06
7.7881e-06
7.7637e-06
7.7637e-06
7.7637e-06
7.7637e-06
7.7637e-06
7.7637e-06
7.7637e-06
7.7637e-06
7.7637e-06
7.7637e-06
7.7637e-06
7.7637e-06
7.7637e-06
7.7637e-06
7.7637e-06
7.7637e-06
7.7637e-06
7.7637e-06
7.7393e-06
7.7637e-06
7.7637e-06
7.7637e-06
7.7637e-06
7.7637e-06
7.7637e-06
7.7637e-06
7.7393e-06
7.7637e-06
7.7393e-06
7.7637e-06
7.7393e-06
7.7637e-06
7.7393e-06
7.7637e-06
7.7393e-06
7.7393e-06
7.7393e-06
7.7393e-06
7.7148e-06
7.7393e-06
7.7393e-06
7.7393e-06
7.7393e-06
7.7393e-06
7.7148e-06
7.7393e-06
7.7393e-06
7.7393e-06
7.7393e-06
7.7393e-06
7.7393e-06
7.7393e-06
7.7148e-06
7.7148e-06
7.7148e-06
7.7393e-06
7.7148e-06
7.7393e-06
7.7148e-06
7.7393e-06
7.7148e-06
7.7148e-06
7.7148e-06
7.7393e-06
7.7148e-06
7.7393e-06
7.7148e-06
7.7393e-06
7.7148e-06
7.7148e-06
7.7148e-06
7.7148e-06
7.7148e-06
7.7148e-06
7.7148e-06
7.7148e-06
7.7148e-06
7.7148e-06
7.7148e-06
7.7148e-06
7.7148e-06
7.7148e-06
7.7148e-06
7.7148e-06
7.7148e-06
7.7148e-06
7.7148e-06
7.7148e-06
7.7148e-06
7.7148e-06
7.7148e-06
7.7148e-06
7.6904e-06
7.7148e-06
7.6904e-06
7.7148e-06
7.7148e-06
7.7148e-06
7.6904e-06
7.7148e-06
7.7148e-06
7.7148e-06
7.7148e-06
7.7148e-06
7.6904e-06
7.7148e-06
7.7148e-06
7.7148e-06
7.6904e-06
7.7148e-06
7.7148e-06
7.7148e-06
7.6904e-06
7.7148e-06
7.7148e-06
7.7148e-06
7.6904e-06
7.7148e-06
7.6904e-06
7.7148e-06
7.7148e-06
7.7148e-06
7.6904e-06
7.7148e-06
7.7148e-06
7.7148e-06
7.7148e-06
7.7148e-06
7.7148e-06
7.7148e-06
7.7148e-06
7.7148e-06
7.7148e-06
7.7148e-06
7.7148e-06
7.7393e-06
7.7148e-06
7.7393e-06
7.7148e-06
7.7393e-06
7.7148e-06
7.7393e-06
7.7148e-06
7.7393e-06
7.7148e-06
7.7393e-06
7.7148e-06
7.7393e-06
7.7148e-06
7.7393e-06
7.7148e-06
7.7393e-06
7.7148e-06
7.7393e-06
7.7148e-06
7.7393e-06
7.7148e-06
7.7393e-06
7.7148e-06
7.7393e-06
7.7148e-06
7.7393e-06
7.7148e-06
7.7393e-06
7.7393e-06
7.7393e-06
7.7148e-06
7.7637e-06
7.7393e-06
7.7393e-06
7.7148e-06
7.7393e-06
7.7393e-06
7.7393e-06
7.7148e-06
7.7393e-06
7.7148e-06
7.7393e-06
7.7393e-06
7.7393e-06
7.7393e-06
7.7393e-06
7.7393e-06
7.7393e-06
7.7393e-06
7.7393e-06
7.7393e-06
7.7393e-06
7.7148e-06
7.7393e-06
7.7148e-06
7.7393e-06
7.7148e-06
7.7393e-06
7.7148e-06
7.7393e-06
7.7148e-06
7.7148e-06
7.7148e-06
7.7393e-06
7.7148e-06
7.7393e-06
7.7393e-06
7.7393e-06
7.7148e-06
7.7393e-06
7.7393e-06
7.7393e-06
7.7148e-06
7.7393e-06
7.7148e-06
7.7393e-06
7.7148e-06
7.7393e-06
7.7148e-06
7.7393e-06
7.7148e-06
7.7393e-06
7.7148e-06
7.7393e-06
7.7148e-06
7.7393e-06
7.7148e-06
7.7393e-06
7.7148e-06
7.7393e-06
7.7148e-06
7.7393e-06
7.7148e-06
7.7148e-06
7.7148e-06
7.7393e-06
7.7148e-06
7.7393e-06
7.7148e-06
7.7393e-06
7.7148e-06
7.7148e-06
7.7148e-06
7.7393e-06
7.7393e-06
7.7393e-06
7.7393e-06
7.7393e-06
7.7148e-06
7.7393e-06
7.7148e-06
7.7393e-06
7.7393e-06
7.7393e-06
7.7148e-06
7.7393e-06
7.7148e-06
7.7393e-06
7.7393e-06
7.7393e-06
7.7148e-06
7.7393e-06
7.7393e-06
7.7393e-06
7.7393e-06
7.7393e-06
7.7393e-06
7.7393e-06
7.7393e-06
7.7393e-06
7.7393e-06
7.7637e-06
7.7393e-06
7.7637e-06
7.7393e-06
7.7637e-06
7.7637e-06
7.7637e-06
7.7637e-06
7.7881e-06
7.7637e-06
7.7881e-06
7.7637e-06
7.7881e-06
7.7881e-06
7.7881e-06
7.7881e-06
7.7881e-06
7.7881e-06
7.7881e-06
7.7881e-06
7.7881e-06
7.7881e-06
7.8125e-06
7.8125e-06
7.8125e-06
7.8125e-06
7.8125e-06
7.8125e-06
7.8369e-06
7.8125e-06
7.8369e-06
7.8125e-06
7.8369e-06
7.8369e-06
7.8369e-06
7.8369e-06
7.8613e-06
7.8369e-06
7.8369e-06
7.8369e-06
7.8613e-06
7.8369e-06
7.8613e-06
7.8613e-06
7.8613e-06
7.8613e-06
7.8857e-06
7.8613e-06
7.8857e-06
7.8613e-06
7.8857e-06
7.8857e-06
7.8857e-06
7.8857e-06
7.8857e-06
7.8857e-06
7.8857e-06
7.8857e-06
7.8857e-06
7.8857e-06
7.8857e-06
7.8857e-06
7.8857e-06
7.8857e-06
7.9102e-06
7.8857e-06
7.9102e-06
7.9102e-06
7.9102e-06
7.9102e-06
7.9102e-06
7.9102e-06
7.9102e-06
7.9102e-06
7.9102e-06
7.9102e-06
7.9346e-06
7.9102e-06
7.9346e-06
7.9102e-06
7.9346e-06
7.9102e-06
7.9346e-06
7.9102e-06
7.9346e-06
7.9346e-06
7.9346e-06
7.9346e-06
7.9346e-06
7.9346e-06
7.9346e-06
7.9346e-06
7.9346e-06
7.9346e-06
7.9346e-06
7.9346e-06
7.9346e-06
7.9346e-06
7.9346e-06
7.9346e-06
7.9346e-06
7.9346e-06
7.9346e-06
7.9346e-06
7.9346e-06
7.9346e-06
7.9346e-06
7.9102e-06
7.9346e-06
7.9346e-06
7.9346e-06
7.9346e-06
7.9346e-06
7.9346e-06
7.9346e-06
7.9346e-06
7.9346e-06
7.9346e-06
7.9346e-06
7.9346e-06
7.9346e-06
7.9346e-06
7.9346e-06
7.9102e-06
7.9346e-06
7.9102e-06
7.9346e-06
7.9346e-06
7.9346e-06
7.9102e-06
7.9346e-06
7.9102e-06
7.9346e-06
7.9102e-06
7.9346e-06
7.9102e-06
7.9346e-06
7.9102e-06
7.9346e-06
7.9102e-06
7.9346e-06
7.9102e-06
7.9102e-06
7.9102e-06
7.9102e-06
7.9102e-06
7.9102e-06
7.9102e-06
7.9102e-06
7.8857e-06
7.9102e-06
7.9102e-06
7.9102e-06
7.9102e-06
7.9102e-06
7.8857e-06
7.9102e-06
7.8857e-06
7.9102e-06
7.8857e-06
7.9102e-06
7.8857e-06
7.8857e-06
7.8857e-06
7.8857e-06
7.8857e-06
7.8857e-06
7.8857e-06
7.8857e-06
7.8857e-06
7.8857e-06
7.8857e-06
7.8857e-06
7.8857e-06
7.8857e-06
7.8857e-06
7.8857e-06
7.8857e-06
7.8857e-06
7.8613e-06
7.8857e-06
7.8857e-06
7.8857e-06
7.8613e-06
7.8857e-06
7.8613e-06
7.8613e-06
7.8613e-06
7.8857e-06
7.8613e-06
7.8613e-06
7.8613e-06
7.8613e-06
7.8613e-06
7.8613e-06
7.8369e-06
7.8613e-06
7.8369e-06
7.8369e-06
7.8369e-06
7.8369e-06
7.8369e-06
7.8369e-06
7.8369e-06
7.8369e-06
7.8369e-06
7.8369e-06
7.8369e-06
7.8369e-06
7.8369e-06
7.8369e-06
7.8125e-06
7.8369e-06
7.8125e-06
7.8125e-06
7.8369e-06
7.8369e-06
7.8125e-06
7.8369e-06
7.8125e-06
7.8125e-06
7.8125e-06
7.8125e-06
7.8125e-06
7.8125e-06
7.7881e-06
7.8125e-06
7.8125e-06
7.8125e-06
7.8125e-06
7.8125e-06
7.7881e-06
7.8125e-06
7.7881e-06
7.8125e-06
7.7881e-06
7.8125e-06
7.7881e-06
7.7881e-06
7.7881e-06
7.7881e-06
7.7881e-06
7.7881e-06
7.7881e-06
7.7881e-06
7.7881e-06
7.7881e-06
7.7881e-06
7.7881e-06
7.7881e-06
7.7881e-06
7.7881e-06
7.7881e-06
7.7881e-06
7.7881e-06
7.7637e-06
7.7881e-06
7.7637e-06
7.7637e-06
7.7637e-06
7.7637e-06
7.7637e-06
7.7881e-06
7.7637e-06
7.7881e-06
7.7637e-06
7.7637e-06
7.7637e-06
7.7637e-06
7.7637e-06
7.7637e-06
7.7637e-06
7.7637e-06
7.7637e-06
7.7637e-06
7.7637e-06
7.7637e-06
7.7637e-06
7.7637e-06
7.7637e-06
7.7637e-06
7.7637e-06
7.7637e-06
7.7637e-06
7.7637e-06
7.7637e-06
7.7637e-06
7.7637e-06
7.7637e-06
7.7637e-06
7.7637e-06
7.7393e-06
7.7637e-06
7.7637e-06
7.7637e-06
7.7393e-06
7.7637e-06
7.7393e-06
7.7393e-06
7.7393e-06
7.7393e-06
7.7393e-06
7.7393e-06
7.7393e-06
7.7637e-06
7.7393e-06
7.7393e-06
7.7393e-06
7.7393e-06
7.7393e-06
7.7393e-06
7.7148e-06
7.7393e-06
7.7393e-06
7.7393e-06
7.7148e-06
7.7393e-06
7.7393e-06
7.7393e-06
7.7148e-06
7.7393e-06
7.7393e-06
7.7393e-06
7.7148e-06
7.7393e-06
7.7393e-06
7.7393e-06
7.7148e-06
7.7393e-06
7.7148e-06
7.7393e-06
7.7148e-06
7.7393e-06
7.7148e-06
7.7393e-06
7.7148e-06
7.7393e-06
7.7148e-06
7.7393e-06
7.7148e-06
7.7148e-06
7.7148e-06
7.7393e-06
7.7148e-06
7.7393e-06
7.7148e-06
7.7148e-06
7.7148e-06
7.7148e-06
7.7148e-06
7.7148e-06
7.7148e-06
7.7148e-06
7.7148e-06
7.7148e-06
7.7148e-06
7.7148e-06
7.7148e-06
7.7148e-06
7.7148e-06
7.7148e-06
7.7148e-06
7.7148e-06
7.7148e-06
7.7148e-06
7.7148e-06
7.7148e-06
7.7148e-06
7.7148e-06
7.7148e-06
7.7148e-06
7.7148e-06
7.7148e-06
7.7148e-06
7.7148e-06
7.7148e-06
7.7148e-06
7.7148e-06
7.7148e-06
7.7148e-06
7.7148e-06
7.7148e-06
7.7148e-06
7.7148e-06
7.7148e-06
7.7148e-06
7.7148e-06
7.7148e-06
7.7148e-06
7.6904e-06
7.7148e-06
7.7148e-06
7.7148e-06
7.6904e-06
7.7148e-06
7.6904e-06
7.7148e-06
7.7148e-06
7.7148e-06
7.6904e-06
7.7148e-06
7.6904e-06
7.7148e-06
7.6904e-06
7.7148e-06
7.6904e-06
7.7148e-06
7.6904e-06
7.7148e-06
7.6904e-06
7.6904e-06
7.6904e-06
7.7148e-06
7.6904e-06
7.7148e-06
7.7148e-06
7.7148e-06
7.6904e-06
7.7148e-06
7.6904e-06
7.7148e-06
7.6904e-06
7.7148e-06
7.7148e-06
7.7148e-06
7.6904e-06
7.7148e-06
7.6904e-06
7.7148e-06
7.6904e-06
7.7148e-06
7.7148e-06
7.7148e-06
7.6904e-06
7.7148e-06
7.6904e-06
7.6904e-06
7.6904e-06
7.7148e-06
7.6904e-06
7.7148e-06
7.7148e-06
7.7148e-06
7.7148e-06
7.7148e-06
7.6904e-06
7.7148e-06
7.6904e-06
7.7148e-06
7.7148e-06
7.7148e-06
7.6904e-06
7.7148e-06
7.6904e-06
7.7148e-06
7.6904e-06
7.7148e-06
7.7148e-06
7.6904e-06
7.6904e-06
7.7148e-06
7.6904e-06
7.6904e-06
7.6904e-06
7.7148e-06
7.6904e-06
7.7148e-06
7.6904e-06
7.7148e-06
7.6904e-06
7.6904e-06
7.6904e-06
7.6904e-06
7.6904e-06
7.6904e-06
7.6904e-06
7.6904e-06
7.6904e-06
7.6904e-06
7.6904e-06
7.6904e-06
7.6904e-06
7.6904e-06
7.6904e-06
7.6904e-06
7.6904e-06
7.6904e-06
7.6904e-06
7.6904e-06
7.6904e-06
7.6904e-06
7.6904e-06
7.6904e-06
7.6904e-06
7.6904e-06
7.6904e-06
7.7148e-06
7.6904e-06
7.6904e-06
7.6904e-06
7.6904e-06
7.6904e-06
7.6904e-06
7.6904e-06
7.7148e-06
7.6904e-06
7.6904e-06
7.6904e-06
7.6904e-06
7.6904e-06
7.6904e-06
7.6904e-06
7.7148e-06
7.6904e-06
7.6904e-06
7.6904e-06
7.6904e-06
7.6904e-06
7.6904e-06
7.6904e-06
7.7148e-06
7.6904e-06
7.7148e-06
7.6904e-06
7.6904e-06
7.6904e-06
7.6904e-06
7.6904e-06
7.6904e-06
7.6904e-06
7.6904e-06
7.6904e-06
7.6904e-06
7.6904e-06
7.6904e-06
7.6904e-06
7.6904e-06
7.6904e-06
7.7148e-06
7.6904e-06
7.6904e-06
7.6904e-06
7.6904e-06
7.6904e-06
7.6904e-06
7.6904e-06
7.6904e-06
7.6904e-06
7.7148e-06
7.6904e-06
7.7148e-06
7.6904e-06
7.7148e-06
7.7148e-06
7.7148e-06
7.7148e-06
7.7148e-06
7.7148e-06
7.7148e-06
7.6904e-06
7.7148e-06
7.6904e-06
7.7148e-06
7.7148e-06
7.7148e-06
7.7148e-06
7.7148e-06
7.7148e-06
7.7148e-06
7.7148e-06
7.7148e-06
7.7148e-06
7.7148e-06
7.7148e-06
7.7148e-06
7.7148e-06
7.7148e-06
7.7148e-06
7.7148e-06
7.7148e-06
7.7148e-06
7.7148e-06
7.7148e-06
7.6904e-06
7.7148e-06
7.6904e-06
7.7148e-06
7.7148e-06
7.7148e-06
7.7148e-06
7.7148e-06
7.7148e-06
7.7148e-06
7.7148e-06
7.7148e-06
7.7148e-06
7.7148e-06
7.7148e-06
7.7148e-06
7.7148e-06
7.7148e-06
7.7148e-06
7.7148e-06
7.7148e-06
7.7148e-06
7.7148e-06
7.7148e-06
7.7148e-06
7.7148e-06
7.7148e-06
7.7148e-06
7.6904e-06
7.7148e-06
7.6904e-06
7.7148e-06
7.6904e-06
7.7148e-06
7.6904e-06
7.6904e-06
7.6904e-06
7.6904e-06
7.6904e-06
7.6904e-06
7.6904e-06
7.6904e-06
7.6904e-06
7.7148e-06
7.6904e-06
7.6904e-06
7.6904e-06
7.6904e-06
7.6904e-06
7.6904e-06
7.6904e-06
7.6904e-06
7.6904e-06
7.7148e-06
7.6904e-06
7.6904e-06
7.6904e-06
7.6904e-06
7.6904e-06
7.7148e-06
7.6904e-06
7.7148e-06
7.6904e-06
7.6904e-06
7.6904e-06
7.6904e-06
7.6904e-06
7.6904e-06
7.6904e-06
7.7148e-06
7.6904e-06
7.6904e-06
7.6904e-06
7.7148e-06
7.6904e-06
7.6904e-06
7.6904e-06
7.6904e-06
7.6904e-06
7.6904e-06
7.666e-06
7.7148e-06
7.6904e-06
7.6904e-06
7.6904e-06
7.6904e-06
7.6904e-06
7.6904e-06
7.6904e-06
7.6904e-06
7.6904e-06
7.6904e-06
7.6904e-06
7.7148e-06
7.6904e-06
7.7148e-06
7.6904e-06
7.7148e-06
7.7148e-06
7.7148e-06
7.7148e-06
7.7148e-06
7.7148e-06
7.7148e-06
7.7148e-06
7.7148e-06
7.7148e-06
7.7148e-06
7.7148e-06
7.7148e-06
7.7148e-06
7.7148e-06
7.7393e-06
7.7393e-06
7.7148e-06
7.7393e-06
7.7393e-06
7.7393e-06
7.7393e-06
7.7637e-06
7.7393e-06
7.7637e-06
7.7637e-06
7.7637e-06
7.7637e-06
7.7637e-06
7.7881e-06
7.7637e-06
7.7637e-06
7.7881e-06
7.7881e-06
7.7881e-06
7.7881e-06
7.7881e-06
7.7881e-06
7.8125e-06
7.8125e-06
7.8125e-06
7.8125e-06
7.8369e-06
7.8125e-06
7.8369e-06
7.8369e-06
7.8369e-06
7.8613e-06
7.8613e-06
7.8613e-06
7.8613e-06
7.8613e-06
7.8857e-06
7.8857e-06
7.8857e-06
7.8857e-06
7.8857e-06
7.8857e-06
7.9102e-06
7.9102e-06
7.9102e-06
7.9102e-06
7.9346e-06
7.9102e-06
7.9346e-06
7.9346e-06
7.9346e-06
7.9346e-06
7.959e-06
7.959e-06
7.959e-06
7.959e-06
7.9834e-06
7.959e-06
7.9834e-06
7.9834e-06
7.9834e-06
7.9834e-06
7.9834e-06
7.9834e-06
8.0078e-06
8.0078e-06
8.0078e-06
8.0078e-06
8.0322e-06
8.0078e-06
8.0078e-06
8.0078e-06
8.0322e-06
8.0322e-06
8.0322e-06
8.0322e-06
8.0322e-06
8.0322e-06
8.0566e-06
8.0322e-06
8.0566e-06
8.0322e-06
8.0566e-06
8.0566e-06
8.0566e-06
8.0566e-06
8.0811e-06
8.0566e-06
8.0811e-06
8.0566e-06
8.0811e-06
8.0566e-06
8.0811e-06
8.0566e-06
8.0811e-06
8.0811e-06
8.0811e-06
8.0566e-06
8.0811e-06
8.0811e-06
8.0811e-06
8.0811e-06
8.0811e-06
8.0811e-06
8.0811e-06
8.0811e-06
8.0811e-06
8.0811e-06
8.0811e-06
8.0811e-06
8.0811e-06
8.0811e-06
8.0811e-06
8.0811e-06
8.0811e-06
8.0811e-06
8.0811e-06
8.0811e-06
8.0811e-06
8.0811e-06
8.0811e-06
8.0811e-06
8.0811e-06
8.0811e-06
8.1055e-06
8.0811e-06
8.0811e-06
8.0811e-06
8.0811e-06
8.0811e-06
8.0811e-06
8.0811e-06
8.1055e-06
8.0811e-06
8.0811e-06
8.0811e-06
8.1055e-06
8.0811e-06
8.0811e-06
8.0811e-06
8.0811e-06
8.0811e-06
8.0811e-06
8.0811e-06
8.0811e-06
8.0811e-06
8.0811e-06
8.0811e-06
8.0811e-06
8.0811e-06
8.0811e-06
8.0811e-06
8.1055e-06
8.0811e-06
8.0811e-06
8.0811e-06
8.0811e-06
8.0566e-06
8.0811e-06
8.0566e-06
8.0811e-06
8.0566e-06
8.0566e-06
8.0566e-06
8.0566e-06
8.0566e-06
8.0566e-06
8.0322e-06
8.0566e-06
8.0566e-06
8.0566e-06
8.0322e-06
8.0566e-06
8.0322e-06
8.0322e-06
8.0322e-06
8.0322e-06
8.0322e-06
8.0322e-06
8.0322e-06
8.0322e-06
8.0078e-06
8.0322e-06
8.0078e-06
8.0078e-06
8.0078e-06
8.0078e-06
8.0078e-06
8.0078e-06
7.9834e-06
8.0078e-06
7.9834e-06
8.0078e-06
7.9834e-06
7.9834e-06
7.9834e-06
7.9834e-06
7.9834e-06
7.9834e-06
7.9834e-06
7.9834e-06
7.9834e-06
7.9834e-06
7.959e-06
7.9834e-06
7.959e-06
7.959e-06
7.959e-06
7.9834e-06
7.959e-06
7.959e-06
7.959e-06
7.959e-06
7.959e-06
7.959e-06
7.959e-06
7.959e-06
7.9346e-06
7.959e-06
7.9346e-06
7.959e-06
7.9346e-06
7.9346e-06
7.9346e-06
7.9346e-06
7.9102e-06
7.9102e-06
7.9102e-06
7.9346e-06
7.9102e-06
7.9102e-06
7.9102e-06
7.9102e-06
7.9102e-06
7.9102e-06
7.9102e-06
7.9102e-06
7.8857e-06
7.8857e-06
7.8857e-06
7.9102e-06
7.8857e-06
7.8857e-06
7.8857e-06
7.8857e-06
7.8857e-06
7.8857e-06
7.8857e-06
7.8857e-06
7.8857e-06
7.8857e-06
7.8857e-06
7.8857e-06
7.8857e-06
7.8857e-06
7.8613e-06
7.8857e-06
7.8613e-06
7.8613e-06
7.8613e-06
7.8613e-06
7.8613e-06
7.8613e-06
7.8369e-06
7.8613e-06
7.8369e-06
7.8613e-06
7.8369e-06
7.8369e-06
7.8369e-06
7.8369e-06
7.8369e-06
7.8369e-06
7.8369e-06
7.8369e-06
7.8125e-06
7.8369e-06
7.8369e-06
7.8369e-06
7.8125e-06
7.8369e-06
7.8125e-06
7.8369e-06
7.8125e-06
7.8125e-06
7.8125e-06
7.8125e-06
7.8125e-06
7.8125e-06
7.8125e-06
7.8125e-06
7.8125e-06
7.8125e-06
7.8125e-06
7.8125e-06
7.7881e-06
7.7881e-06
7.7881e-06
7.7881e-06
7.7881e-06
7.8125e-06
7.7881e-06
7.7881e-06
7.7881e-06
7.7881e-06
7.7881e-06
7.7881e-06
7.7881e-06
7.7881e-06
7.7881e-06
7.7881e-06
7.7881e-06
7.7881e-06
7.7637e-06
7.7881e-06
7.7637e-06
7.7881e-06
7.7637e-06
7.7881e-06
7.7637e-06
7.7637e-06
7.7637e-06
7.7637e-06
7.7637e-06
7.7637e-06
7.7637e-06
7.7637e-06
7.7637e-06
7.7637e-06
7.7637e-06
7.7637e-06
7.7637e-06
7.7637e-06
7.7637e-06
7.7637e-06
7.7393e-06
7.7637e-06
7.7393e-06
7.7637e-06
7.7393e-06
7.7637e-06
7.7393e-06
7.7393e-06
7.7393e-06
7.7637e-06
7.7393e-06
7.7393e-06
7.7393e-06
7.7393e-06
7.7393e-06
7.7393e-06
7.7393e-06
7.7393e-06
7.7393e-06
7.7393e-06
7.7393e-06
7.7393e-06
7.7148e-06
7.7393e-06
7.7148e-06
7.7393e-06
7.7148e-06
7.7148e-06
7.7148e-06
7.7148e-06
7.7148e-06
7.7148e-06
7.7148e-06
7.7148e-06
7.7148e-06
7.7148e-06
7.7148e-06
7.7148e-06
7.7148e-06
7.7148e-06
7.7148e-06
7.7148e-06
7.6904e-06
7.7148e-06
7.6904e-06
7.7148e-06
7.7148e-06
7.7148e-06
7.6904e-06
7.7148e-06
7.6904e-06
7.7148e-06
7.6904e-06
7.7148e-06
7.6904e-06
7.7148e-06
7.6904e-06
7.7148e-06
7.6904e-06
7.6904e-06
7.6904e-06
7.7148e-06
7.6904e-06
7.6904e-06
7.6904e-06
7.6904e-06
7.6904e-06
7.6904e-06
7.6904e-06
7.6904e-06
7.6904e-06
7.6904e-06
7.6904e-06
7.6904e-06
7.6904e-06
7.6904e-06
7.666e-06
7.6904e-06
7.666e-06
7.6904e-06
7.6904e-06
7.6904e-06
7.666e-06
7.6904e-06
7.6904e-06
7.6904e-06
7.6904e-06
7.6904e-06
7.6904e-06
7.6904e-06
7.666e-06
7.6904e-06
7.666e-06
7.6904e-06
7.6904e-06
7.6904e-06
7.666e-06
7.6904e-06
7.666e-06
7.666e-06
7.666e-06
7.6904e-06
7.666e-06
7.666e-06
7.666e-06
7.666e-06
7.666e-06
7.666e-06
7.666e-06
7.666e-06
7.666e-06
7.666e-06
7.666e-06
7.666e-06
7.666e-06
7.666e-06
7.666e-06
7.666e-06
7.666e-06
7.666e-06
7.666e-06
7.666e-06
7.666e-06
7.666e-06
7.666e-06
7.6904e-06
7.666e-06
7.666e-06
7.666e-06
7.666e-06
7.666e-06
7.666e-06
7.666e-06
7.666e-06
7.666e-06
7.666e-06
7.666e-06
7.666e-06
7.6416e-06
7.666e-06
7.666e-06
7.666e-06
7.6416e-06
7.666e-06
7.666e-06
7.666e-06
7.6416e-06
7.666e-06
7.6416e-06
7.666e-06
7.6416e-06
7.6416e-06
7.6416e-06
7.6416e-06
7.6416e-06
7.6416e-06
7.6416e-06
7.666e-06
7.6416e-06
7.6416e-06
7.6416e-06
7.6416e-06
7.6416e-06
7.6416e-06
7.6416e-06
7.6416e-06
7.6416e-06
7.6416e-06
7.6416e-06
7.6416e-06
7.6416e-06
7.666e-06
7.6416e-06
7.6416e-06
7.6416e-06
7.6416e-06
7.6416e-06
7.6416e-06
7.6416e-06
7.6416e-06
7.6416e-06
7.6416e-06
7.6416e-06
7.6416e-06
7.6416e-06
7.6416e-06
7.6416e-06
7.6416e-06
7.6172e-06
7.6416e-06
7.6416e-06
7.6416e-06
7.6416e-06
7.6416e-06
7.6172e-06
7.6416e-06
7.6416e-06
7.6416e-06
7.6416e-06
7.6416e-06
7.6416e-06
7.6416e-06
7.6416e-06
7.6416e-06
7.6172e-06
7.6416e-06
7.6416e-06
7.6416e-06
7.6416e-06
7.6416e-06
7.6416e-06
7.6416e-06
7.6172e-06
7.6416e-06
7.6416e-06
7.6416e-06
7.6416e-06
7.6416e-06
7.6416e-06
7.6416e-06
7.6416e-06
7.6416e-06
7.6416e-06
7.6416e-06
7.6416e-06
7.6416e-06
7.6416e-06
7.6416e-06
7.6416e-06
7.6416e-06
7.6416e-06
7.6416e-06
7.6416e-06
7.6416e-06
7.6416e-06
7.6416e-06
7.6416e-06
7.6416e-06
7.6416e-06
7.6416e-06
7.6416e-06
7.6416e-06
7.6416e-06
7.6416e-06
7.6172e-06
7.6416e-06
7.6416e-06
7.6416e-06
7.6416e-06
7.6416e-06
7.6172e-06
7.6416e-06
7.6416e-06
7.6416e-06
7.6172e-06
7.6416e-06
7.6172e-06
7.6416e-06
7.6172e-06
7.6416e-06
7.6172e-06
7.6416e-06
7.6172e-06
7.6172e-06
7.6172e-06
7.6416e-06
7.6172e-06
7.6172e-06
7.6172e-06
7.6416e-06
7.6172e-06
7.6416e-06
7.6172e-06
7.6172e-06
7.6172e-06
7.6172e-06
7.6172e-06
7.6172e-06
7.6172e-06
7.6172e-06
7.6172e-06
7.6172e-06
7.6172e-06
7.6172e-06
7.6172e-06
7.6416e-06
7.6172e-06
7.6172e-06
7.6172e-06
7.6172e-06
7.6172e-06
7.6172e-06
7.6172e-06
7.6172e-06
7.6172e-06
7.6172e-06
7.6172e-06
7.6172e-06
7.6172e-06
7.6172e-06
7.6172e-06
7.6172e-06
7.6172e-06
7.6172e-06
7.6172e-06
7.6172e-06
7.6172e-06
7.6172e-06
7.6172e-06
7.6172e-06
7.6172e-06
7.6172e-06
7.6172e-06
7.6172e-06
7.6172e-06
7.6172e-06
7.6172e-06
7.6172e-06
7.6172e-06
7.6172e-06
7.5928e-06
7.6172e-06
7.6172e-06
7.6172e-06
7.6172e-06
7.6172e-06
7.6172e-06
7.5928e-06
7.6172e-06
7.6172e-06
7.6172e-06
7.5928e-06
7.6172e-06
7.5928e-06
7.5928e-06
7.6172e-06
7.5928e-06
7.6172e-06
7.5928e-06
7.6172e-06
7.5928e-06
7.6172e-06
7.5928e-06
7.5928e-06
7.5928e-06
7.5928e-06
7.5928e-06
7.5928e-06
7.5928e-06
7.5928e-06
7.5928e-06
7.5928e-06
7.5928e-06
7.5928e-06
7.5684e-06
7.5928e-06
7.5928e-06
7.5928e-06
7.5684e-06
7.5928e-06
7.5928e-06
7.5928e-06
7.5928e-06
7.5928e-06
7.5684e-06
7.5928e-06
7.5928e-06
7.5928e-06
7.5684e-06
7.5684e-06
7.5684e-06
7.5928e-06
7.5684e-06
7.5928e-06
7.5684e-06
7.5928e-06
7.5684e-06
7.5928e-06
7.5684e-06
7.5928e-06
7.5684e-06
7.5684e-06
7.5684e-06
7.5928e-06
7.5684e-06
7.5684e-06
7.5684e-06
7.5684e-06
7.5684e-06
7.5928e-06
7.5684e-06
7.5684e-06
7.5684e-06
7.5928e-06
7.5684e-06
7.5928e-06
7.5684e-06
7.5684e-06
7.5684e-06
7.5684e-06
7.5684e-06
7.5684e-06
7.5684e-06
7.5684e-06
7.5684e-06
7.5684e-06
7.5684e-06
7.5684e-06
7.5684e-06
7.5684e-06
7.5684e-06
7.5684e-06
7.5684e-06
7.5684e-06
7.5684e-06
7.5684e-06
7.5684e-06
7.5684e-06
7.5684e-06
7.5684e-06
7.5684e-06
7.5684e-06
7.5439e-06
7.5684e-06
7.5684e-06
7.5684e-06
7.5684e-06
7.5684e-06
7.5684e-06
7.5684e-06
7.5684e-06
7.5684e-06
7.5684e-06
7.5684e-06
7.5439e-06
7.5684e-06
7.5684e-06
7.5684e-06
7.5684e-06
7.5684e-06
7.5684e-06
7.5684e-06
7.5439e-06
7.5684e-06
7.5439e-06
7.5684e-06
7.5439e-06
7.5439e-06
7.5439e-06
7.5684e-06
7.5684e-06
7.5684e-06
7.5439e-06
7.5684e-06
7.5439e-06
7.5439e-06
7.5439e-06
7.5439e-06
7.5439e-06
7.5439e-06
7.5439e-06
7.5684e-06
7.5439e-06
7.5684e-06
7.5684e-06
7.5684e-06
7.5684e-06
7.5684e-06
7.5439e-06
7.5439e-06
7.5439e-06
7.5684e-06
7.5439e-06
7.5439e-06
7.5439e-06
7.5684e-06
7.5439e-06
7.5684e-06
7.5439e-06
7.5439e-06
7.5439e-06
7.5684e-06
7.5439e-06
7.5439e-06
7.5439e-06
7.5439e-06
7.5439e-06
7.5684e-06
7.5439e-06
7.5439e-06
7.5439e-06
7.5439e-06
7.5439e-06
7.5684e-06
7.5439e-06
7.5439e-06
7.5439e-06
7.5439e-06
7.5439e-06
7.5439e-06
7.5439e-06
7.5439e-06
7.5195e-06
7.5439e-06
7.5439e-06
7.5439e-06
7.5439e-06
7.5439e-06
7.5439e-06
7.5439e-06
7.5439e-06
7.5439e-06
7.5439e-06
7.5439e-06
7.5195e-06
7.5439e-06
7.5439e-06
7.5439e-06
7.5195e-06
7.5439e-06
7.5439e-06
7.5439e-06
7.5439e-06
7.5195e-06
7.5195e-06
7.5439e-06
7.5195e-06
7.5195e-06
7.5195e-06
7.5439e-06
7.5439e-06
7.5439e-06
7.5195e-06
7.5439e-06
7.5195e-06
7.5439e-06
7.5439e-06
7.5439e-06
7.5439e-06
7.5439e-06
7.5439e-06
7.5439e-06
7.5195e-06
7.5439e-06
7.5439e-06
7.5439e-06
7.5195e-06
7.5195e-06
7.5195e-06
7.5195e-06
7.5195e-06
7.5195e-06
7.5195e-06
7.5195e-06
7.5439e-06
7.5195e-06
7.5195e-06
7.5195e-06
7.5195e-06
7.5439e-06
7.5195e-06
7.5439e-06
7.5195e-06
7.5195e-06
7.5195e-06
7.5439e-06
7.5439e-06
7.5195e-06
7.5195e-06
7.5195e-06
7.5195e-06
7.5195e-06
7.5195e-06
7.5195e-06
7.5195e-06
7.5195e-06
7.5195e-06
7.5439e-06
7.5195e-06
7.5195e-06
7.5195e-06
7.5195e-06
7.5195e-06
7.5195e-06
7.5195e-06
7.5195e-06
7.5195e-06
7.5195e-06
7.5195e-06
7.5439e-06
7.5195e-06
7.5195e-06
7.5195e-06
7.5195e-06
7.5195e-06
7.5195e-06
7.5195e-06
7.5439e-06
7.5195e-06
7.5195e-06
7.5195e-06
7.5195e-06
7.5195e-06
7.5195e-06
7.5195e-06
7.5195e-06
7.5195e-06
7.5195e-06
7.5195e-06
7.5195e-06
7.5195e-06
7.5195e-06
7.5195e-06
7.5195e-06
7.5195e-06
7.5195e-06
7.5195e-06
7.5195e-06
7.5195e-06
7.5195e-06
7.5195e-06
7.5195e-06
7.5195e-06
7.5195e-06
7.4951e-06
7.5195e-06
7.5195e-06
7.5195e-06
7.5195e-06
7.5195e-06
7.5195e-06
7.5195e-06
7.4951e-06
7.5195e-06
7.5195e-06
7.5195e-06
7.5195e-06
7.5195e-06
7.5195e-06
7.4951e-06
7.4951e-06
7.5195e-06
7.4951e-06
7.4951e-06
7.5195e-06
7.5195e-06
7.4951e-06
7.5195e-06
7.5195e-06
7.5195e-06
7.4951e-06
7.5195e-06
7.4951e-06
7.5195e-06
7.4951e-06
7.4951e-06
7.4951e-06
7.4951e-06
7.4951e-06
7.5195e-06
7.5195e-06
7.5195e-06
7.4951e-06
7.4951e-06
7.4951e-06
7.5195e-06
7.4951e-06
7.4951e-06
7.4951e-06
7.5195e-06
7.4951e-06
7.4951e-06
7.4951e-06
7.5195e-06
7.4951e-06
7.5195e-06
7.4951e-06
7.5195e-06
7.4951e-06
7.5195e-06
7.4951e-06
7.5195e-06
7.4951e-06
7.4951e-06
7.5195e-06
7.5195e-06
7.5195e-06
7.5195e-06
7.4951e-06
7.4951e-06
7.4951e-06
7.5195e-06
7.4951e-06
7.5195e-06
7.4951e-06
7.4951e-06
7.4951e-06
7.4951e-06
7.4951e-06
7.4951e-06
7.4951e-06
7.4951e-06
7.4951e-06
7.4951e-06
7.4951e-06
7.4951e-06
7.4951e-06
7.4951e-06
7.4951e-06
7.4951e-06
7.4951e-06
7.4951e-06
7.4951e-06
7.4951e-06
7.4951e-06
7.4951e-06
7.4951e-06
7.4951e-06
7.4951e-06
7.4951e-06
7.4951e-06
7.4951e-06
7.4951e-06
7.4951e-06
7.4951e-06
7.4951e-06
7.4951e-06
7.4951e-06
7.4951e-06
7.4951e-06
7.4951e-06
7.4951e-06
7.4951e-06
7.4951e-06
7.4951e-06
7.5195e-06
7.5195e-06
7.5195e-06
7.5195e-06
7.5195e-06
7.5195e-06
7.5195e-06
7.5195e-06
7.5195e-06
7.5195e-06
7.5195e-06
7.5195e-06
7.5195e-06
7.5195e-06
7.5195e-06
7.5195e-06
7.5195e-06
7.5195e-06
7.5195e-06
7.5195e-06
7.5195e-06
7.5195e-06
7.5195e-06
7.5195e-06
7.5195e-06
7.5195e-06
7.5195e-06
7.5195e-06
7.5195e-06
7.5195e-06
7.5195e-06
7.5195e-06
7.5439e-06
7.5439e-06
7.5195e-06
7.5195e-06
7.5439e-06
7.5439e-06
7.5439e-06
7.5439e-06
7.5439e-06
7.5195e-06
7.5439e-06
7.5439e-06
7.5439e-06
7.5195e-06
7.5439e-06
7.5439e-06
7.5439e-06
7.5439e-06
7.5439e-06
7.5439e-06
7.5439e-06
7.5439e-06
7.5439e-06
7.5439e-06
7.5195e-06
7.5195e-06
7.5439e-06
7.5439e-06
7.5439e-06
7.5439e-06
7.5439e-06
7.5439e-06
7.5439e-06
7.5439e-06
7.5439e-06
7.5195e-06
7.5439e-06
7.5439e-06
7.5439e-06
7.5439e-06
7.5439e-06
7.5439e-06
7.5439e-06
7.5439e-06
7.5439e-06
7.5439e-06
7.5439e-06
7.5439e-06
7.5439e-06
7.5439e-06
7.5439e-06
7.5439e-06
7.5439e-06
7.5439e-06
7.5439e-06
7.5439e-06
7.5439e-06
7.5439e-06
7.5439e-06
7.5439e-06
7.5439e-06
7.5439e-06
7.5439e-06
7.5439e-06
7.5439e-06
7.5439e-06
7.5684e-06
7.5684e-06
7.5439e-06
7.5439e-06
7.5684e-06
7.5439e-06
7.5684e-06
7.5684e-06
7.5684e-06
7.5684e-06
7.5684e-06
7.5684e-06
7.5684e-06
7.5684e-06
7.5684e-06
7.5684e-06
7.5684e-06
7.5684e-06
7.5684e-06
7.5684e-06
7.5684e-06
7.5684e-06
7.5684e-06
7.5684e-06
7.5684e-06
7.5684e-06
7.5684e-06
7.5684e-06
7.5684e-06
7.5684e-06
7.5684e-06
7.5684e-06
7.5684e-06
7.5684e-06
7.5684e-06
7.5439e-06
7.5684e-06
7.5684e-06
7.5684e-06
7.5684e-06
7.5684e-06
7.5439e-06
7.5439e-06
7.5439e-06
7.5439e-06
7.5439e-06
7.5439e-06
7.5439e-06
7.5439e-06
7.5439e-06
7.5439e-06
7.5439e-06
7.5439e-06
7.5439e-06
7.5439e-06
7.5439e-06
7.5439e-06
7.5439e-06
7.5439e-06
7.5195e-06
7.5439e-06
7.5195e-06
7.5439e-06
7.5195e-06
7.5195e-06
7.5195e-06
7.5195e-06
7.5195e-06
7.5195e-06
7.5195e-06
7.5195e-06
7.5195e-06
7.5195e-06
7.5195e-06
7.5195e-06
7.5195e-06
7.5195e-06
7.5195e-06
7.5195e-06
7.5195e-06
7.5195e-06
7.5195e-06
7.5195e-06
7.5195e-06
7.5195e-06
7.5195e-06
7.5195e-06
7.4951e-06
7.5195e-06
7.5195e-06
7.5195e-06
7.5195e-06
7.5195e-06
7.5195e-06
7.5195e-06
7.4951e-06
7.5195e-06
7.5195e-06
7.5195e-06
7.5195e-06
7.5195e-06
7.5195e-06
7.5195e-06
7.5195e-06
7.5195e-06
7.5195e-06
7.5195e-06
7.5195e-06
7.5195e-06
7.5195e-06
7.5195e-06
7.5195e-06
7.5195e-06
7.5195e-06
7.5195e-06
7.4951e-06
7.5195e-06
7.5195e-06
7.5195e-06
7.5195e-06
7.5195e-06
7.5195e-06
7.5195e-06
7.5195e-06
7.5195e-06
7.5195e-06
7.5195e-06
7.5195e-06
7.5195e-06
7.5195e-06
7.5195e-06
7.5195e-06
7.5195e-06
7.5195e-06
7.5195e-06
7.5195e-06
7.5439e-06
7.5195e-06
7.5195e-06
7.5439e-06
7.5195e-06
7.5439e-06
7.5439e-06
7.5439e-06
7.5439e-06
7.5439e-06
7.5439e-06
7.5439e-06
7.5439e-06
7.5439e-06
7.5439e-06
7.5439e-06
7.5439e-06
7.5439e-06
7.5439e-06
7.5439e-06
7.5439e-06
7.5439e-06
7.5439e-06
7.5439e-06
7.5684e-06
7.5684e-06
7.5684e-06
7.5684e-06
7.5684e-06
7.5684e-06
7.5684e-06
7.5684e-06
7.5684e-06
7.5684e-06
7.5684e-06
7.5684e-06
7.5928e-06
7.5684e-06
7.5684e-06
7.5928e-06
7.5928e-06
7.5928e-06
7.5928e-06
7.5684e-06
7.5928e-06
7.5928e-06
7.5928e-06
7.5928e-06
7.5928e-06
7.5928e-06
7.5928e-06
7.5928e-06
7.5928e-06
7.5928e-06
7.5928e-06
7.5928e-06
7.5928e-06
7.5928e-06
7.5928e-06
7.5928e-06
7.5928e-06
7.5928e-06
7.6172e-06
7.5928e-06
7.6172e-06
7.6172e-06
7.6172e-06
7.5928e-06
7.6172e-06
7.6172e-06
7.6172e-06
7.6172e-06
7.6172e-06
7.6172e-06
7.6172e-06
7.6172e-06
7.6172e-06
7.6172e-06
7.6172e-06
7.6172e-06
7.6172e-06
7.6172e-06
7.6172e-06
7.6172e-06
7.6172e-06
7.6172e-06
7.6172e-06
7.6172e-06
7.6172e-06
7.6172e-06
7.6172e-06
7.6172e-06
7.6172e-06
7.6172e-06
7.6172e-06
7.6172e-06
7.6172e-06
7.6172e-06
7.6172e-06
7.6172e-06
7.6172e-06
7.6172e-06
7.6172e-06
7.6172e-06
7.6172e-06
7.6172e-06
7.6172e-06
7.6172e-06
7.6172e-06
7.6172e-06
7.6172e-06
7.6172e-06
7.6172e-06
7.6172e-06
7.6172e-06
7.6172e-06
7.6172e-06
7.6172e-06
7.6172e-06
7.6172e-06
7.6172e-06
7.6172e-06
7.6172e-06
7.6172e-06
7.6172e-06
7.6172e-06
7.6172e-06
7.6172e-06
7.6172e-06
7.5928e-06
7.6172e-06
7.5928e-06
7.6172e-06
7.5928e-06
7.5928e-06
7.5928e-06
7.6172e-06
7.5928e-06
7.5928e-06
7.5928e-06
7.6172e-06
7.5928e-06
7.5928e-06
7.5928e-06
7.5928e-06
7.5928e-06
7.5928e-06
7.5928e-06
7.5928e-06
7.5928e-06
7.5928e-06
7.5928e-06
7.5928e-06
7.5928e-06
7.5928e-06
7.5928e-06
7.5928e-06
7.5684e-06
7.5684e-06
7.5928e-06
7.5928e-06
7.5684e-06
7.5684e-06
7.5684e-06
7.5684e-06
7.5684e-06
7.5684e-06
7.5684e-06
7.5684e-06
7.5684e-06
7.5684e-06
7.5684e-06
7.5684e-06
7.5684e-06
7.5684e-06
7.5684e-06
7.5684e-06
7.5684e-06
7.5684e-06
7.5684e-06
7.5684e-06
7.5684e-06
7.5684e-06
7.5684e-06
7.5684e-06
7.5684e-06
7.5684e-06
7.5439e-06
7.5439e-06
7.5439e-06
7.5439e-06
7.5439e-06
7.5439e-06
7.5439e-06
7.5439e-06
7.5439e-06
7.5439e-06
7.5439e-06
7.5439e-06
7.5439e-06
7.5439e-06
7.5439e-06
7.5439e-06
7.5195e-06
7.5439e-06
7.5195e-06
7.5195e-06
7.5439e-06
7.5195e-06
7.5195e-06
7.5439e-06
7.5439e-06
7.5195e-06
7.5195e-06
7.5439e-06
7.5195e-06
7.5195e-06
7.5195e-06
7.5195e-06
7.5195e-06
7.5195e-06
7.5195e-06
7.5195e-06
7.5195e-06
7.5195e-06
7.5195e-06
7.5195e-06
7.5195e-06
7.5195e-06
7.5195e-06
7.5195e-06
7.5195e-06
7.5195e-06
7.5195e-06
7.5195e-06
7.5195e-06
7.5195e-06
7.5195e-06
7.5195e-06
7.4951e-06
7.5195e-06
7.5195e-06
7.4951e-06
7.5195e-06
7.5195e-06
7.4951e-06
7.4951e-06
7.4951e-06
7.5195e-06
7.4951e-06
7.4951e-06
7.4951e-06
7.4951e-06
7.4951e-06
7.4951e-06
7.4951e-06
7.4951e-06
7.4951e-06
7.4951e-06
7.4951e-06
7.4951e-06
7.4951e-06
7.4951e-06
7.4951e-06
7.4951e-06
7.4951e-06
7.4951e-06
7.4951e-06
7.4951e-06
7.4951e-06
7.4951e-06
7.4951e-06
7.4951e-06
7.4951e-06
7.4951e-06
7.4951e-06
7.4951e-06
7.4951e-06
7.4951e-06
7.4951e-06
7.4951e-06
7.4951e-06
7.4951e-06
7.4951e-06
7.4951e-06
7.4951e-06
7.4951e-06
7.4951e-06
7.4951e-06
7.4951e-06
7.4951e-06
7.4951e-06
7.4951e-06
7.4951e-06
7.4951e-06
7.4951e-06
7.4951e-06
7.4951e-06
7.4951e-06
7.4951e-06
7.4951e-06
7.4951e-06
7.4951e-06
7.4951e-06
7.4951e-06
7.4951e-06
7.4951e-06
7.4951e-06
7.4951e-06
7.4707e-06
7.4951e-06
7.4707e-06
7.4951e-06
7.4951e-06
7.4951e-06
7.4707e-06
7.4951e-06
7.4707e-06
7.4951e-06
7.4707e-06
7.4951e-06
7.4707e-06
7.4951e-06
7.4707e-06
7.4707e-06
7.4707e-06
7.4707e-06
7.4707e-06
7.4707e-06
7.4707e-06
7.4707e-06
7.4951e-06
7.4951e-06
7.4707e-06
7.4951e-06
7.4707e-06
7.4707e-06
7.4707e-06
7.4707e-06
7.4707e-06
7.4707e-06
7.4707e-06
7.4707e-06
7.4707e-06
7.4707e-06
7.4707e-06
7.4707e-06
7.4707e-06
7.4707e-06
7.4707e-06
7.4707e-06
7.4707e-06
7.4707e-06
7.4707e-06
7.4707e-06
7.4707e-06
7.4707e-06
7.4707e-06
7.4707e-06
7.4707e-06
7.4707e-06
7.4707e-06
7.4707e-06
7.4707e-06
7.4707e-06
7.4707e-06
7.4707e-06
7.4707e-06
7.4707e-06
7.4707e-06
7.4707e-06
7.4707e-06
7.4707e-06
7.4463e-06
7.4707e-06
7.4463e-06
7.4707e-06
7.4463e-06
7.4463e-06
7.4463e-06
7.4463e-06
7.4707e-06
7.4707e-06
7.4463e-06
7.4463e-06
7.4463e-06
7.4707e-06
7.4463e-06
7.4707e-06
7.4463e-06
7.4463e-06
7.4463e-06
7.4463e-06
7.4463e-06
7.4463e-06
7.4463e-06
7.4707e-06
7.4463e-06
7.4463e-06
7.4463e-06
7.4463e-06
7.4463e-06
7.4463e-06
7.4463e-06
7.4463e-06
7.4463e-06
7.4463e-06
7.4463e-06
7.4463e-06
7.4463e-06
7.4463e-06
7.4463e-06
7.4463e-06
7.4463e-06
7.4463e-06
7.4463e-06
7.4463e-06
7.4463e-06
7.4463e-06
7.4463e-06
7.4463e-06
7.4463e-06
7.4463e-06
7.4463e-06
7.4463e-06
7.4463e-06
7.4463e-06
7.4463e-06
7.4463e-06
7.4463e-06
7.4463e-06
7.4463e-06
7.4463e-06
7.4463e-06
7.4463e-06
7.4463e-06
7.4463e-06
7.4463e-06
7.4463e-06
7.4463e-06
7.4463e-06
7.4463e-06
7.4463e-06
7.4463e-06
7.4463e-06
7.4463e-06
7.4463e-06
7.4463e-06
7.4463e-06
7.4463e-06
7.4463e-06
7.4463e-06
7.4463e-06
7.4463e-06
7.4463e-06
7.4463e-06
7.4463e-06
7.4463e-06
7.4463e-06
7.4463e-06
7.4463e-06
7.4463e-06
7.4463e-06
7.4463e-06
7.4463e-06
7.4463e-06
7.4463e-06
7.4219e-06
7.4463e-06
7.4219e-06
7.4463e-06
7.4219e-06
7.4463e-06
7.4463e-06
7.4463e-06
7.4463e-06
7.4463e-06
7.4219e-06
7.4463e-06
7.4219e-06
7.4463e-06
7.4463e-06
7.4219e-06
7.4463e-06
7.4463e-06
7.4463e-06
7.4463e-06
7.4219e-06
7.4463e-06
7.4463e-06
7.4463e-06
7.4219e-06
7.4463e-06
7.4219e-06
7.4463e-06
7.4463e-06
7.4463e-06
7.4463e-06
7.4463e-06
7.4463e-06
7.4463e-06
7.4219e-06
7.4463e-06
7.4219e-06
7.4463e-06
7.4219e-06
7.4463e-06
7.4463e-06
7.4463e-06
7.4463e-06
7.4463e-06
7.4463e-06
7.4463e-06
7.4463e-06
7.4463e-06
7.4463e-06
7.4463e-06
7.4463e-06
7.4463e-06
7.4463e-06
7.4463e-06
7.4463e-06
7.4463e-06
7.4463e-06
7.4463e-06
7.4463e-06
7.4463e-06
7.4463e-06
7.4463e-06
7.4463e-06
7.4463e-06
7.4463e-06
7.4463e-06
7.4463e-06
7.4463e-06
7.4463e-06
7.4707e-06
7.4707e-06
7.4463e-06
7.4463e-06
7.4707e-06
7.4463e-06
7.4707e-06
7.4707e-06
7.4707e-06
7.4707e-06
7.4707e-06
7.4707e-06
7.4951e-06
7.4951e-06
7.4951e-06
7.4951e-06
7.4951e-06
7.4951e-06
7.4951e-06
7.4951e-06
7.4951e-06
7.4951e-06
7.4951e-06
7.4951e-06
7.5195e-06
7.5195e-06
7.4951e-06
7.4951e-06
7.5195e-06
7.5195e-06
7.5195e-06
7.5195e-06
7.5439e-06
7.5439e-06
7.5439e-06
7.5684e-06
7.5684e-06
7.5684e-06
7.5684e-06
7.5684e-06
7.5684e-06
7.5684e-06
7.5684e-06
7.5684e-06
7.5928e-06
7.5928e-06
7.5928e-06
7.5928e-06
7.6172e-06
7.6172e-06
7.6172e-06
7.6172e-06
7.6416e-06
7.6172e-06
7.6416e-06
7.6416e-06
7.6416e-06
7.6416e-06
7.6416e-06
7.6416e-06
7.666e-06
7.666e-06
7.666e-06
7.6904e-06
7.6904e-06
7.6904e-06
7.6904e-06
7.6904e-06
7.7148e-06
7.6904e-06
7.6904e-06
7.7148e-06
7.7148e-06
7.7148e-06
7.7148e-06
7.7148e-06
7.7148e-06
7.7148e-06
7.7148e-06
7.7148e-06
7.7393e-06
7.7148e-06
7.7393e-06
7.7393e-06
7.7393e-06
7.7393e-06
7.7393e-06
7.7393e-06
7.7637e-06
7.7637e-06
7.7637e-06
7.7637e-06
7.7637e-06
7.7637e-06
7.7637e-06
7.7637e-06
7.7637e-06
7.7637e-06
7.7637e-06
7.7637e-06
7.7881e-06
7.7881e-06
7.7881e-06
7.7881e-06
7.7881e-06
7.7881e-06
7.7881e-06
7.7881e-06
7.7881e-06
7.7881e-06
7.7881e-06
7.7881e-06
7.7881e-06
7.7881e-06
7.7881e-06
7.7881e-06
7.8125e-06
7.7881e-06
7.8125e-06
7.7881e-06
7.7881e-06
7.7881e-06
7.8125e-06
7.8125e-06
7.8125e-06
7.8125e-06
7.8125e-06
7.8125e-06
7.8125e-06
7.7881e-06
7.8125e-06
7.7881e-06
7.8125e-06
7.8125e-06
7.8125e-06
7.7881e-06
7.8125e-06
7.7881e-06
7.8125e-06
7.8125e-06
7.8125e-06
7.8125e-06
7.8125e-06
7.8125e-06
7.8125e-06
7.7881e-06
7.8125e-06
7.7881e-06
7.8125e-06
7.8125e-06
7.8125e-06
7.8125e-06
7.8125e-06
7.8125e-06
7.8125e-06
7.8125e-06
7.8125e-06
7.7881e-06
7.8125e-06
7.7881e-06
7.8125e-06
7.7881e-06
7.7881e-06
7.7881e-06
7.8125e-06
7.7881e-06
7.7881e-06
7.7881e-06
7.8125e-06
7.7881e-06
7.8125e-06
7.7881e-06
7.8125e-06
7.7881e-06
7.7881e-06
7.7881e-06
7.7881e-06
7.7881e-06
7.7881e-06
7.7881e-06
7.7881e-06
7.7881e-06
7.7881e-06
7.7881e-06
7.7881e-06
7.7881e-06
7.7881e-06
7.7881e-06
7.7881e-06
7.7881e-06
7.7881e-06
7.7881e-06
7.7881e-06
7.7881e-06
7.7881e-06
7.7881e-06
7.7881e-06
7.7881e-06
7.7881e-06
7.7881e-06
7.7881e-06
7.7637e-06
7.7881e-06
7.7637e-06
7.7881e-06
7.7881e-06
7.7881e-06
7.7881e-06
7.7881e-06
7.7881e-06
7.7881e-06
7.7881e-06
7.7881e-06
7.7881e-06
7.7881e-06
7.7881e-06
7.7881e-06
7.7881e-06
7.7881e-06
7.7881e-06
7.7881e-06
7.7881e-06
7.7881e-06
7.7637e-06
7.7881e-06
7.7637e-06
7.7881e-06
7.7637e-06
7.7881e-06
7.7637e-06
7.7881e-06
7.7637e-06
7.7881e-06
7.7637e-06
7.7881e-06
7.7637e-06
7.7881e-06
7.7637e-06
7.7881e-06
7.7637e-06
7.7881e-06
7.7637e-06
7.7881e-06
7.7637e-06
7.7881e-06
7.7637e-06
7.7881e-06
7.7637e-06
7.7881e-06
7.7637e-06
7.7881e-06
7.7637e-06
7.7881e-06
7.7637e-06
7.7881e-06
7.7637e-06
7.7881e-06
7.7637e-06
7.7881e-06
7.7637e-06
7.7881e-06
7.7637e-06
7.7881e-06
7.7637e-06
7.7881e-06
7.7637e-06
7.7881e-06
7.7637e-06
7.7881e-06
7.7637e-06
7.7637e-06
7.7637e-06
7.7637e-06
7.7637e-06
7.7637e-06
7.7393e-06
7.7637e-06
7.7393e-06
7.7637e-06
7.7393e-06
7.7637e-06
7.7393e-06
7.7393e-06
7.7393e-06
7.7393e-06
7.7148e-06
7.7393e-06
7.7148e-06
7.7393e-06
7.7148e-06
7.7393e-06
7.7148e-06
7.7393e-06
7.7148e-06
7.7393e-06
7.7148e-06
7.7393e-06
7.7148e-06
7.7393e-06
7.7148e-06
7.7148e-06
7.7148e-06
7.7393e-06
7.7148e-06
7.7393e-06
7.7148e-06
7.7393e-06
7.7148e-06
7.7393e-06
7.7148e-06
7.7148e-06
7.7148e-06
7.7393e-06
7.7148e-06
7.7148e-06
7.7148e-06
7.7393e-06
7.7148e-06
7.7148e-06
7.7148e-06
7.7393e-06
7.7148e-06
7.7393e-06
7.7148e-06
7.7393e-06
7.7148e-06
7.7393e-06
7.7148e-06
7.7393e-06
7.7393e-06
7.7393e-06
7.7393e-06
7.7393e-06
7.7393e-06
7.7393e-06
7.7393e-06
7.7637e-06
7.7393e-06
7.7637e-06
7.7393e-06
7.7637e-06
7.7393e-06
7.7637e-06
7.7637e-06
7.7881e-06
7.7637e-06
7.7637e-06
7.7637e-06
7.7881e-06
7.7881e-06
7.7881e-06
7.7881e-06
7.7881e-06
7.7881e-06
7.7881e-06
7.7881e-06
7.8125e-06
7.8125e-06
7.8125e-06
7.8125e-06
7.8369e-06
7.8369e-06
7.8369e-06
7.8369e-06
7.8613e-06
7.8369e-06
7.8613e-06
7.8613e-06
7.8857e-06
7.8613e-06
7.8613e-06
7.8857e-06
7.8857e-06
7.8857e-06
7.8857e-06
7.8857e-06
7.9102e-06
7.9102e-06
7.9102e-06
7.9346e-06
7.9346e-06
7.9346e-06
7.959e-06
7.9346e-06
7.959e-06
7.959e-06
7.9834e-06
7.9834e-06
7.9834e-06
7.9834e-06
7.9834e-06
7.9834e-06
7.9834e-06
7.9834e-06
8.0078e-06
8.0078e-06
8.0322e-06
8.0078e-06
8.0322e-06
8.0322e-06
8.0322e-06
8.0322e-06
8.0566e-06
8.0566e-06
8.0566e-06
8.0566e-06
8.0811e-06
8.0811e-06
8.0811e-06
8.0811e-06
8.0811e-06
8.1055e-06
8.1055e-06
8.1055e-06
8.1055e-06
8.1055e-06
8.1299e-06
8.1055e-06
8.1299e-06
8.1299e-06
8.1299e-06
8.1299e-06
8.1543e-06
8.1299e-06
8.1543e-06
8.1543e-06
8.1543e-06
8.1543e-06
8.1543e-06
8.1543e-06
8.1787e-06
8.1543e-06
8.1787e-06
8.1787e-06
8.1787e-06
8.1787e-06
8.1787e-06
8.1787e-06
8.1787e-06
8.1787e-06
8.1787e-06
8.1787e-06
8.2031e-06
8.1787e-06
8.2031e-06
8.1787e-06
8.2031e-06
8.2031e-06
8.2031e-06
8.2031e-06
8.2031e-06
8.2031e-06
8.2275e-06
8.2031e-06
8.2275e-06
8.2031e-06
8.2275e-06
8.2031e-06
8.2275e-06
8.2031e-06
8.2275e-06
8.2275e-06
8.2275e-06
8.2275e-06
8.2275e-06
8.2275e-06
8.2275e-06
8.2275e-06
8.2275e-06
8.2275e-06
8.2275e-06
8.2275e-06
8.2275e-06
8.2275e-06
8.2275e-06
8.2275e-06
8.2275e-06
8.2275e-06
8.2275e-06
8.2275e-06
8.2275e-06
8.2275e-06
8.2275e-06
8.2031e-06
8.2031e-06
8.2275e-06
8.2275e-06
8.2031e-06
8.2275e-06
8.2031e-06
8.2031e-06
8.2031e-06
8.2275e-06
8.2031e-06
8.2031e-06
8.2031e-06
8.2275e-06
8.1787e-06
8.2031e-06
8.2031e-06
8.2275e-06
8.2031e-06
8.2031e-06
8.2031e-06
8.2031e-06
8.2031e-06
8.2031e-06
8.2031e-06
8.2275e-06
8.2031e-06
8.2031e-06
8.2031e-06
8.2275e-06
8.2031e-06
8.2275e-06
8.2275e-06
8.2275e-06
8.2031e-06
8.2275e-06
8.2275e-06
8.2275e-06
8.2275e-06
8.2275e-06
8.2275e-06
8.2275e-06
8.2275e-06
8.2275e-06
8.2275e-06
8.252e-06
8.2275e-06
8.252e-06
8.2275e-06
8.252e-06
8.2275e-06
8.252e-06
8.2275e-06
8.252e-06
8.2275e-06
8.252e-06
8.252e-06
8.252e-06
8.2275e-06
8.252e-06
8.2275e-06
8.252e-06
8.252e-06
8.252e-06
8.2275e-06
8.252e-06
8.2275e-06
8.252e-06
8.252e-06
8.252e-06
8.2275e-06
8.252e-06
8.252e-06
8.252e-06
8.252e-06
8.252e-06
8.252e-06
8.252e-06
8.252e-06
8.252e-06
8.252e-06
8.2764e-06
8.252e-06
8.2764e-06
8.252e-06
8.2764e-06
8.252e-06
8.2764e-06
8.2764e-06
8.2764e-06
8.252e-06
8.2764e-06
8.2764e-06
8.2764e-06
8.252e-06
8.2764e-06
8.2764e-06
8.2764e-06
8.2764e-06
8.2764e-06
8.2764e-06
8.2764e-06
8.2764e-06
8.2764e-06
8.2764e-06
8.2764e-06
8.2764e-06
8.2764e-06
8.2764e-06
8.2764e-06
8.2764e-06
8.2764e-06
8.2764e-06
8.2764e-06
8.2764e-06
8.2764e-06
8.2764e-06
8.3008e-06
8.2764e-06
8.2764e-06
8.2764e-06
8.2764e-06
8.2764e-06
8.2764e-06
8.2764e-06
8.2764e-06
8.2764e-06
8.2764e-06
8.2764e-06
8.2764e-06
8.2764e-06
8.2764e-06
8.2764e-06
8.2764e-06
8.2764e-06
8.2764e-06
8.2764e-06
8.2764e-06
8.2764e-06
8.2764e-06
8.2764e-06
8.2764e-06
8.2764e-06
8.2764e-06
8.2764e-06
8.2764e-06
8.2764e-06
8.2764e-06
8.252e-06
8.2764e-06
8.252e-06
8.2764e-06
8.2764e-06
8.2764e-06
8.252e-06
8.2764e-06
8.252e-06
8.2764e-06
8.252e-06
8.252e-06
8.2275e-06
8.2764e-06
8.252e-06
8.252e-06
8.252e-06
8.252e-06
8.252e-06
8.252e-06
8.2275e-06
8.252e-06
8.2275e-06
8.2275e-06
8.2275e-06
8.2275e-06
8.2275e-06
8.2275e-06
8.2275e-06
8.2275e-06
8.2031e-06
8.2275e-06
8.2031e-06
8.2275e-06
8.2031e-06
8.2031e-06
8.2031e-06
8.2031e-06
8.2031e-06
8.2031e-06
8.1787e-06
8.2031e-06
8.1787e-06
8.1787e-06
8.1787e-06
8.1787e-06
8.1787e-06
8.1787e-06
8.1787e-06
8.1787e-06
8.1787e-06
8.1787e-06
8.1787e-06
8.1787e-06
8.1543e-06
8.1543e-06
8.1543e-06
8.1543e-06
8.1543e-06
8.1543e-06
8.1299e-06
8.1543e-06
8.1299e-06
8.1299e-06
8.1299e-06
8.1543e-06
8.1299e-06
8.1299e-06
8.1299e-06
8.1299e-06
8.1055e-06
8.1055e-06
8.1055e-06
8.1299e-06
8.1055e-06
8.1055e-06
8.1055e-06
8.1299e-06
8.1055e-06
8.1055e-06
8.1055e-06
8.1055e-06
8.0811e-06
8.1055e-06
8.0811e-06
8.1055e-06
8.0811e-06
8.1055e-06
8.0811e-06
8.0811e-06
8.0811e-06
8.0811e-06
8.0566e-06
8.0811e-06
8.0566e-06
8.0811e-06
8.0566e-06
8.0811e-06
8.0566e-06
8.0811e-06
8.0322e-06
8.0566e-06
8.0322e-06
8.0566e-06
8.0322e-06
8.0566e-06
8.0322e-06
8.0322e-06
8.0322e-06
8.0322e-06
7.9834e-06
8.0322e-06
8.0078e-06
8.0322e-06
8.0078e-06
8.0078e-06
8.0078e-06
8.0078e-06
7.9834e-06
8.0078e-06
7.9834e-06
8.0078e-06
7.9834e-06
7.9834e-06
7.9834e-06
7.9834e-06
7.9834e-06
7.9834e-06
7.9834e-06
7.9834e-06
7.9834e-06
7.9834e-06
7.9834e-06
7.9834e-06
7.959e-06
7.959e-06
7.959e-06
7.959e-06
7.959e-06
7.959e-06
7.959e-06
7.959e-06
7.959e-06
7.959e-06
7.9346e-06
7.959e-06
7.9346e-06
7.9346e-06
7.9346e-06
7.9346e-06
7.9102e-06
7.9346e-06
7.9102e-06
7.9346e-06
7.9102e-06
7.9102e-06
7.9102e-06
7.9102e-06
7.9102e-06
7.9102e-06
7.8857e-06
7.9102e-06
7.9102e-06
7.9102e-06
7.9102e-06
7.8857e-06
7.8857e-06
7.9102e-06
7.8857e-06
7.9102e-06
7.8857e-06
7.8857e-06
7.8857e-06
7.8857e-06
7.8857e-06
7.8857e-06
7.8857e-06
7.8857e-06
7.8857e-06
7.8857e-06
7.8857e-06
7.8613e-06
7.8613e-06
7.8857e-06
7.8613e-06
7.8857e-06
7.8613e-06
7.8857e-06
7.8613e-06
7.8857e-06
7.8613e-06
7.8857e-06
7.8857e-06
7.8857e-06
7.8613e-06
7.8857e-06
7.8857e-06
7.8857e-06
7.8613e-06
7.8613e-06
7.8613e-06
7.8613e-06
7.8613e-06
7.8613e-06
7.8613e-06
7.8613e-06
7.8369e-06
7.8613e-06
7.8613e-06
7.8613e-06
7.8369e-06
7.8613e-06
7.8369e-06
7.8369e-06
7.8369e-06
7.8369e-06
7.8369e-06
7.8369e-06
7.8369e-06
7.8369e-06
7.8369e-06
7.8369e-06
7.8125e-06
7.8125e-06
7.8125e-06
7.8369e-06
7.8125e-06
7.8369e-06
7.8125e-06
7.8125e-06
7.8125e-06
7.8125e-06
7.8125e-06
7.8125e-06
7.7881e-06
7.8125e-06
7.7881e-06
7.8125e-06
7.7881e-06
7.8125e-06
7.7881e-06
7.7881e-06
7.7881e-06
7.7881e-06
7.7881e-06
7.7881e-06
7.7881e-06
7.7881e-06
7.7881e-06
7.7881e-06
7.7881e-06
7.7881e-06
7.7881e-06
7.7881e-06
7.7881e-06
7.7881e-06
7.7881e-06
7.7881e-06
7.7637e-06
7.7881e-06
7.7637e-06
7.7881e-06
7.7637e-06
7.7637e-06
7.7637e-06
7.7881e-06
7.7637e-06
7.7637e-06
7.7637e-06
7.7637e-06
7.7637e-06
7.7637e-06
7.7637e-06
7.7637e-06
7.7637e-06
7.7637e-06
7.7637e-06
7.7637e-06
7.7637e-06
7.7637e-06
7.7393e-06
7.7637e-06
7.7393e-06
7.7637e-06
7.7393e-06
7.7637e-06
7.7393e-06
7.7393e-06
7.7393e-06
7.7637e-06
7.7393e-06
7.7637e-06
7.7393e-06
7.7637e-06
7.7393e-06
7.7393e-06
7.7393e-06
7.7393e-06
7.7148e-06
7.7393e-06
7.7393e-06
7.7393e-06
7.7148e-06
7.7393e-06
7.7148e-06
7.7148e-06
7.7148e-06
7.7393e-06
7.7148e-06
7.7393e-06
7.7148e-06
7.7393e-06
7.7148e-06
7.7393e-06
7.7148e-06
7.7148e-06
7.7148e-06
7.7148e-06
7.7148e-06
7.7148e-06
7.7148e-06
7.7148e-06
7.7148e-06
7.7148e-06
7.7148e-06
7.7148e-06
7.7148e-06
7.7148e-06
7.6904e-06
7.7148e-06
7.6904e-06
7.7148e-06
7.6904e-06
7.7393e-06
7.6904e-06
7.7148e-06
7.6904e-06
7.7148e-06
7.6904e-06
7.7148e-06
7.7148e-06
7.7393e-06
7.6904e-06
7.7148e-06
7.7148e-06
7.7393e-06
7.7148e-06
7.7393e-06
7.7148e-06
7.7393e-06
7.6904e-06
7.7148e-06
7.6904e-06
7.7148e-06
7.7148e-06
7.7148e-06
7.6904e-06
7.7148e-06
7.6904e-06
7.7148e-06
7.6904e-06
7.7148e-06
7.6904e-06
7.7148e-06
7.6904e-06
7.7148e-06
7.6904e-06
7.7148e-06
7.6904e-06
7.7148e-06
7.6904e-06
7.7148e-06
7.6904e-06
7.7148e-06
7.6904e-06
7.7148e-06
7.666e-06
7.7148e-06
7.6904e-06
7.7148e-06
7.666e-06
7.7148e-06
7.6904e-06
7.7148e-06
7.6904e-06
7.7148e-06
7.6904e-06
7.7148e-06
7.6904e-06
7.7148e-06
7.6904e-06
7.7148e-06
7.6904e-06
7.7148e-06
7.6904e-06
7.7148e-06
7.6904e-06
7.7148e-06
7.666e-06
7.7148e-06
7.666e-06
7.7148e-06
7.666e-06
7.6904e-06
7.6904e-06
7.7148e-06
7.6904e-06
7.6904e-06
7.6904e-06
7.6904e-06
7.6904e-06
7.6904e-06
7.6904e-06
7.6904e-06
7.6904e-06
7.6904e-06
7.666e-06
7.6904e-06
7.666e-06
7.6904e-06
7.666e-06
7.7148e-06
7.6416e-06
7.6904e-06
7.666e-06
7.6904e-06
7.666e-06
7.6904e-06
7.666e-06
7.6904e-06
7.666e-06
7.6904e-06
7.666e-06
7.6904e-06
7.666e-06
7.6904e-06
7.6416e-06
7.6904e-06
7.666e-06
7.6904e-06
7.666e-06
7.6904e-06
7.666e-06
7.6904e-06
7.666e-06
7.7148e-06
7.666e-06
7.7148e-06
7.6904e-06
7.7148e-06
7.6904e-06
7.7148e-06
7.6904e-06
7.7148e-06
7.6904e-06
7.7393e-06
7.7148e-06
7.7393e-06
7.7148e-06
7.7637e-06
7.7148e-06
7.7637e-06
7.7393e-06
7.7637e-06
7.7393e-06
7.7881e-06
7.7393e-06
7.7881e-06
7.7637e-06
7.7881e-06
7.7637e-06
7.7881e-06
7.7881e-06
7.8125e-06
7.7881e-06
7.8125e-06
7.7881e-06
7.8369e-06
7.8125e-06
7.8369e-06
7.8125e-06
7.8613e-06
7.8369e-06
7.8857e-06
7.8369e-06
7.8857e-06
7.8613e-06
7.8857e-06
7.8613e-06
7.9102e-06
7.8857e-06
7.9102e-06
7.8857e-06
7.9346e-06
7.9102e-06
7.959e-06
7.9346e-06
7.959e-06
7.9346e-06
7.9834e-06
7.959e-06
7.9834e-06
7.9834e-06
8.0078e-06
7.9834e-06
8.0322e-06
7.9834e-06
8.0322e-06
8.0078e-06
8.0566e-06
8.0322e-06
8.0811e-06
8.0566e-06
8.1055e-06
8.0811e-06
8.1055e-06
8.0811e-06
8.1299e-06
8.1055e-06
8.1299e-06
8.1055e-06
8.1543e-06
8.1299e-06
8.1787e-06
8.1543e-06
8.1787e-06
8.1543e-06
8.2031e-06
8.1787e-06
8.2275e-06
8.1787e-06
8.2275e-06
8.2031e-06
8.252e-06
8.2275e-06
8.2764e-06
8.2275e-06
8.2764e-06
8.252e-06
8.3008e-06
8.2764e-06
8.3008e-06
8.2764e-06
8.3252e-06
8.3008e-06
8.3496e-06
8.3252e-06
8.374e-06
8.3252e-06
8.374e-06
8.3496e-06
8.3984e-06
8.374e-06
8.3984e-06
8.374e-06
8.3984e-06
8.3984e-06
8.4229e-06
8.3984e-06
8.4473e-06
8.3984e-06
8.4473e-06
8.4229e-06
8.4473e-06
8.4229e-06
8.4717e-06
8.4473e-06
8.4717e-06
8.4717e-06
8.4961e-06
8.4717e-06
8.4961e-06
8.4961e-06
8.5205e-06
8.4961e-06
8.5205e-06
8.5205e-06
8.5449e-06
8.5205e-06
8.5449e-06
8.5205e-06
8.5449e-06
8.5449e-06
8.5693e-06
8.5449e-06
8.5693e-06
8.5449e-06
8.5693e-06
8.5449e-06
8.5693e-06
8.5693e-06
8.5693e-06
8.5693e-06
8.5937e-06
8.5693e-06
8.5937e-06
8.5693e-06
8.5937e-06
8.5937e-06
8.5937e-06
8.5937e-06
8.6182e-06
8.5937e-06
8.6182e-06
8.5937e-06
8.6182e-06
8.5937e-06
8.6182e-06
8.5937e-06
8.6182e-06
8.5937e-06
8.6182e-06
8.5937e-06
8.6182e-06
8.5937e-06
8.6182e-06
8.5937e-06
8.5937e-06
8.5693e-06
8.5937e-06
8.5937e-06
8.5937e-06
8.5937e-06
8.5937e-06
8.5693e-06
8.5937e-06
8.5937e-06
8.5937e-06
8.5937e-06
8.5937e-06
8.5937e-06
8.5937e-06
8.5937e-06
8.6182e-06
8.5693e-06
8.5937e-06
8.5693e-06
8.5937e-06
8.5693e-06
8.5937e-06
8.5693e-06
8.5937e-06
8.5693e-06
8.5937e-06
8.5693e-06
8.5937e-06
8.5693e-06
8.5937e-06
8.5693e-06
8.5937e-06
8.5449e-06
8.5937e-06
8.5693e-06
8.5937e-06
8.5693e-06
8.5693e-06
8.5693e-06
8.5693e-06
8.5693e-06
8.5693e-06
8.5693e-06
8.5693e-06
8.5693e-06
8.5693e-06
8.5693e-06
8.5693e-06
8.5693e-06
8.5693e-06
8.5449e-06
8.5693e-06
8.5449e-06
8.5693e-06
8.5449e-06
8.5693e-06
8.5449e-06
8.5693e-06
8.5449e-06
8.5693e-06
8.5449e-06
8.5693e-06
8.5449e-06
8.5693e-06
8.5693e-06
8.5449e-06
8.5449e-06
8.5449e-06
8.5449e-06
8.5449e-06
8.5449e-06
8.5449e-06
8.5205e-06
8.5449e-06
8.5449e-06
8.5449e-06
8.5205e-06
8.5449e-06
8.5205e-06
8.5205e-06
8.5205e-06
8.5205e-06
8.5205e-06
8.5205e-06
8.5205e-06
8.5205e-06
8.5205e-06
8.5449e-06
8.5205e-06
8.5205e-06
8.4961e-06
8.5205e-06
8.5205e-06
8.5205e-06
8.5205e-06
8.5205e-06
8.4961e-06
8.5205e-06
8.4961e-06
8.5205e-06
8.4961e-06
8.4961e-06
8.4961e-06
8.4961e-06
8.4961e-06
8.4961e-06
8.4961e-06
8.4961e-06
8.4961e-06
8.4961e-06
8.4717e-06
8.4961e-06
8.4717e-06
8.4961e-06
8.4717e-06
8.4961e-06
8.4717e-06
8.4717e-06
8.4717e-06
8.4961e-06
8.4717e-06
8.4717e-06
8.4717e-06
8.4717e-06
8.4717e-06
8.4717e-06
8.4717e-06
8.4717e-06
8.4717e-06
8.4717e-06
8.4717e-06
8.4717e-06
8.4473e-06
8.4717e-06
8.4473e-06
8.4717e-06
8.4473e-06
8.4473e-06
8.4473e-06
8.4473e-06
8.4473e-06
8.4473e-06
8.4473e-06
8.4473e-06
8.4473e-06
8.4473e-06
8.4473e-06
8.4473e-06
8.4229e-06
8.4473e-06
8.4229e-06
8.4473e-06
8.4229e-06
8.4229e-06
8.4229e-06
8.4473e-06
8.4229e-06
8.4229e-06
8.4229e-06
8.4229e-06
8.3984e-06
8.4229e-06
8.4229e-06
8.4229e-06
8.3984e-06
8.4229e-06
8.3984e-06
8.3984e-06
8.3984e-06
8.3984e-06
8.3984e-06
8.3984e-06
8.3984e-06
8.3984e-06
8.3984e-06
8.3984e-06
8.374e-06
8.3984e-06
8.374e-06
8.3984e-06
8.374e-06
8.374e-06
8.374e-06
8.374e-06
8.374e-06
8.374e-06
8.374e-06
8.374e-06
8.3496e-06
8.374e-06
8.3496e-06
8.374e-06
8.3496e-06
8.3496e-06
8.3496e-06
8.3496e-06
8.3496e-06
8.3496e-06
8.3496e-06
8.3496e-06
8.3252e-06
8.3496e-06
8.3496e-06
8.3496e-06
8.3252e-06
8.3252e-06
8.3252e-06
8.3252e-06
8.3252e-06
8.3252e-06
8.3252e-06
8.3252e-06
8.3008e-06
8.3252e-06
8.3008e-06
8.3252e-06
8.3008e-06
8.3008e-06
8.3008e-06
8.3008e-06
8.2764e-06
8.3008e-06
8.3008e-06
8.3008e-06
8.3008e-06
8.3008e-06
8.2764e-06
8.3008e-06
8.2764e-06
8.2764e-06
8.2764e-06
8.2764e-06
8.2764e-06
8.2764e-06
8.2764e-06
8.2764e-06
8.2764e-06
8.2764e-06
8.2764e-06
8.2764e-06
8.2764e-06
8.2764e-06
8.2764e-06
8.2764e-06
8.252e-06
8.2764e-06
8.252e-06
8.2764e-06
8.252e-06
8.2764e-06
8.252e-06
8.2764e-06
8.252e-06
8.252e-06
8.252e-06
8.252e-06
8.252e-06
8.252e-06
8.252e-06
8.252e-06
8.252e-06
8.252e-06
8.2275e-06
8.252e-06
8.2275e-06
8.252e-06
8.2275e-06
8.2275e-06
8.2275e-06
8.2275e-06
8.2275e-06
8.2275e-06
8.2275e-06
8.2275e-06
8.2275e-06
8.2275e-06
8.2031e-06
8.2275e-06
8.2031e-06
8.2275e-06
8.2031e-06
8.2275e-06
8.2031e-06
8.2275e-06
8.2031e-06
8.2031e-06
8.2031e-06
8.2275e-06
8.1787e-06
8.2031e-06
8.2031e-06
8.2031e-06
8.1787e-06
8.2031e-06
8.2031e-06
8.2031e-06
8.2031e-06
8.2031e-06
8.2031e-06
8.2031e-06
8.2031e-06
8.2031e-06
8.1787e-06
8.2031e-06
8.1787e-06
8.2031e-06
8.2031e-06
8.2031e-06
8.1787e-06
8.2031e-06
8.1787e-06
8.2031e-06
8.1787e-06
8.1787e-06
8.1787e-06
8.1787e-06
8.1787e-06
8.1787e-06
8.1787e-06
8.1787e-06
8.1787e-06
8.1787e-06
8.1787e-06
8.1787e-06
8.1787e-06
8.1787e-06
8.1787e-06
8.1787e-06
8.1787e-06
8.1787e-06
8.1787e-06
8.1787e-06
8.1787e-06
8.1787e-06
8.1787e-06
8.1787e-06
8.1543e-06
8.1787e-06
8.1543e-06
8.1787e-06
8.1543e-06
8.1787e-06
8.1543e-06
8.1543e-06
8.1543e-06
8.1543e-06
8.1543e-06
8.1543e-06
8.1543e-06
8.1543e-06
8.1543e-06
8.1543e-06
8.1543e-06
8.1543e-06
8.1543e-06
8.1543e-06
8.1543e-06
8.1543e-06
8.1299e-06
8.1543e-06
8.1543e-06
8.1543e-06
8.1299e-06
8.1543e-06
8.1299e-06
8.1299e-06
8.1299e-06
8.1543e-06
8.1299e-06
8.1299e-06
8.1299e-06
8.1299e-06
8.1299e-06
8.1543e-06
8.1299e-06
8.1543e-06
8.1299e-06
8.1299e-06
8.1055e-06
8.1543e-06
8.1055e-06
8.1299e-06
8.1055e-06
8.1299e-06
8.1055e-06
8.1299e-06
8.1055e-06
8.1299e-06
8.1055e-06
8.1299e-06
8.1055e-06
8.1299e-06
8.1055e-06
8.1299e-06
8.1055e-06
8.1299e-06
8.1055e-06
8.1299e-06
8.1055e-06
8.1299e-06
8.1055e-06
8.1055e-06
8.1055e-06
8.1055e-06
8.1055e-06
8.1055e-06
8.1055e-06
8.1055e-06
8.1055e-06
8.1055e-06
8.1055e-06
8.1055e-06
8.1055e-06
8.1055e-06
8.1055e-06
8.1055e-06
8.0811e-06
8.1055e-06
8.0811e-06
8.1055e-06
8.0811e-06
8.1055e-06
8.0811e-06
8.1055e-06
8.0811e-06
8.1055e-06
8.0811e-06
8.1055e-06
8.0811e-06
8.1055e-06
8.0811e-06
8.1055e-06
8.0811e-06
8.0811e-06
8.0811e-06
8.0811e-06
8.0811e-06
8.0811e-06
8.0811e-06
8.0811e-06
8.0811e-06
8.0811e-06
8.0811e-06
8.0811e-06
8.0811e-06
8.0811e-06
8.0811e-06
8.0811e-06
8.0811e-06
8.0811e-06
8.0811e-06
8.0811e-06
8.0566e-06
8.0811e-06
8.0566e-06
8.0811e-06
8.0566e-06
8.0811e-06
8.0566e-06
8.0811e-06
8.0566e-06
8.0811e-06
8.0566e-06
8.0566e-06
8.0566e-06
8.0566e-06
8.0566e-06
8.0566e-06
8.0566e-06
8.0566e-06
8.0566e-06
8.0566e-06
8.0566e-06
8.0566e-06
8.0322e-06
8.0566e-06
8.0566e-06
8.0566e-06
8.0322e-06
8.0566e-06
8.0566e-06
8.0566e-06
8.0322e-06
8.0566e-06
8.0322e-06
8.0566e-06
8.0322e-06
8.0566e-06
8.0322e-06
8.0566e-06
8.0322e-06
8.0566e-06
8.0322e-06
8.0566e-06
8.0322e-06
8.0566e-06
8.0322e-06
8.0566e-06
8.0322e-06
8.0566e-06
8.0322e-06
8.0322e-06
8.0322e-06
8.0322e-06
8.0322e-06
8.0322e-06
8.0322e-06
8.0322e-06
8.0322e-06
8.0566e-06
8.0322e-06
8.0322e-06
8.0322e-06
8.0566e-06
8.0322e-06
8.0322e-06
8.0078e-06
8.0322e-06
8.0322e-06
8.0322e-06
8.0322e-06
8.0322e-06
8.0078e-06
8.0322e-06
8.0078e-06
8.0322e-06
8.0078e-06
8.0322e-06
8.0078e-06
8.0322e-06
8.0078e-06
8.0322e-06
8.0078e-06
8.0322e-06
8.0078e-06
8.0322e-06
8.0078e-06
8.0322e-06
8.0078e-06
8.0322e-06
8.0078e-06
8.0322e-06
8.0078e-06
8.0322e-06
8.0078e-06
8.0322e-06
8.0078e-06
8.0322e-06
8.0078e-06
8.0322e-06
8.0078e-06
8.0322e-06
8.0078e-06
8.0322e-06
8.0078e-06
8.0322e-06
8.0078e-06
8.0322e-06
8.0078e-06
8.0322e-06
8.0078e-06
8.0322e-06
8.0078e-06
8.0322e-06
8.0078e-06
8.0322e-06
8.0078e-06
8.0322e-06
8.0078e-06
8.0078e-06
7.9834e-06
8.0322e-06
8.0078e-06
8.0322e-06
7.9834e-06
8.0078e-06
8.0078e-06
8.0078e-06
8.0078e-06
8.0322e-06
8.0078e-06
8.0322e-06
8.0078e-06
8.0322e-06
8.0078e-06
8.0078e-06
8.0078e-06
8.0322e-06
8.0078e-06
8.0322e-06
7.9834e-06
8.0322e-06
8.0078e-06
8.0078e-06
8.0078e-06
8.0322e-06
8.0078e-06
8.0078e-06
8.0078e-06
8.0322e-06
8.0078e-06
8.0322e-06
8.0078e-06
8.0322e-06
8.0078e-06
8.0322e-06
8.0078e-06
8.0322e-06
8.0078e-06
8.0322e-06
8.0078e-06
8.0322e-06
8.0078e-06
8.0322e-06
8.0322e-06
8.0322e-06
8.0078e-06
8.0322e-06
8.0078e-06
8.0322e-06
8.0078e-06
8.0322e-06
8.0078e-06
8.0322e-06
8.0322e-06
8.0322e-06
8.0322e-06
8.0566e-06
8.0322e-06
8.0322e-06
8.0322e-06
8.0322e-06
8.0322e-06
8.0322e-06
8.0322e-06
8.0322e-06
8.0322e-06
8.0322e-06
8.0322e-06
8.0566e-06
8.0322e-06
8.0566e-06
8.0322e-06
8.0566e-06
8.0322e-06
8.0566e-06
8.0322e-06
8.0566e-06
8.0322e-06
8.0566e-06
8.0322e-06
8.0566e-06
8.0322e-06
8.0566e-06
8.0322e-06
8.0566e-06
8.0322e-06
8.0566e-06
8.0322e-06
8.0566e-06
8.0322e-06
8.0566e-06
8.0322e-06
8.0566e-06
8.0322e-06
8.0566e-06
8.0322e-06
8.0566e-06
8.0322e-06
8.0566e-06
8.0322e-06
8.0566e-06
8.0322e-06
8.0566e-06
8.0322e-06
8.0566e-06
8.0322e-06
8.0566e-06
8.0322e-06
8.0566e-06
8.0322e-06
8.0566e-06
8.0322e-06
8.0566e-06
8.0322e-06
8.0566e-06
8.0322e-06
8.0566e-06
8.0322e-06
8.0566e-06
8.0322e-06
8.0566e-06
8.0322e-06
8.0566e-06
8.0322e-06
8.0566e-06
8.0322e-06
8.0566e-06
8.0322e-06
8.0566e-06
8.0322e-06
8.0566e-06
8.0322e-06
8.0566e-06
8.0322e-06
8.0566e-06
8.0322e-06
8.0566e-06
8.0322e-06
8.0566e-06
8.0322e-06
8.0566e-06
8.0322e-06
8.0566e-06
8.0322e-06
8.0566e-06
8.0322e-06
8.0566e-06
8.0322e-06
8.0566e-06
8.0322e-06
8.0566e-06
8.0322e-06
8.0566e-06
8.0322e-06
8.0566e-06
8.0322e-06
8.0566e-06
8.0322e-06
8.0566e-06
8.0322e-06
8.0566e-06
8.0322e-06
8.0566e-06
8.0322e-06
8.0322e-06
8.0322e-06
8.0566e-06
8.0322e-06
8.0566e-06
8.0322e-06
8.0322e-06
8.0322e-06
8.0322e-06
8.0078e-06
8.0322e-06
8.0322e-06
8.0322e-06
8.0078e-06
8.0322e-06
8.0078e-06
8.0322e-06
8.0078e-06
8.0322e-06
8.0078e-06
8.0322e-06
8.0078e-06
8.0322e-06
8.0078e-06
8.0322e-06
8.0078e-06
8.0322e-06
8.0078e-06
8.0322e-06
8.0078e-06
8.0322e-06
8.0078e-06
8.0322e-06
8.0078e-06
8.0322e-06
8.0078e-06
8.0322e-06
8.0078e-06
8.0078e-06
8.0078e-06
8.0078e-06
8.0078e-06
8.0078e-06
8.0078e-06
8.0322e-06
7.9834e-06
8.0078e-06
7.9834e-06
8.0078e-06
7.9834e-06
8.0078e-06
7.9834e-06
8.0078e-06
7.9834e-06
8.0078e-06
7.9834e-06
8.0078e-06
7.9834e-06
8.0078e-06
7.9834e-06
8.0078e-06
7.9834e-06
8.0078e-06
7.9834e-06
8.0078e-06
7.9834e-06
8.0078e-06
7.9834e-06
8.0078e-06
7.9834e-06
8.0078e-06
7.9834e-06
8.0078e-06
7.9834e-06
7.9834e-06
7.9834e-06
7.9834e-06
7.9834e-06
8.0078e-06
7.9834e-06
7.9834e-06
7.9834e-06
7.9834e-06
7.9834e-06
7.9834e-06
7.9834e-06
7.9834e-06
7.9834e-06
7.9834e-06
7.9834e-06
7.9834e-06
7.959e-06
7.9834e-06
7.959e-06
7.9834e-06
7.959e-06
7.9834e-06
7.959e-06
7.9834e-06
7.959e-06
7.9834e-06
7.959e-06
7.9834e-06
7.959e-06
7.9834e-06
7.959e-06
7.9834e-06
7.959e-06
7.9834e-06
7.959e-06
7.9834e-06
7.959e-06
7.9834e-06
7.959e-06
7.9834e-06
7.959e-06
7.9834e-06
7.959e-06
7.9834e-06
7.959e-06
7.9834e-06
7.959e-06
7.9834e-06
7.959e-06
7.9834e-06
7.959e-06
7.9834e-06
7.959e-06
7.9834e-06
7.959e-06
7.9834e-06
7.959e-06
7.9834e-06
7.959e-06
7.9834e-06
7.959e-06
7.9834e-06
7.959e-06
7.9834e-06
7.959e-06
7.9834e-06
7.959e-06
7.9834e-06
7.959e-06
7.9834e-06
7.959e-06
7.9834e-06
7.9346e-06
7.9834e-06
7.959e-06
7.959e-06
7.959e-06
7.9834e-06
7.959e-06
7.959e-06
7.959e-06
7.9834e-06
7.9346e-06
7.959e-06
7.959e-06
7.959e-06
7.9346e-06
7.959e-06
7.959e-06
7.959e-06
7.959e-06
7.959e-06
7.9346e-06
7.959e-06
7.9346e-06
7.959e-06
7.9346e-06
7.959e-06
7.9346e-06
7.959e-06
7.9346e-06
7.959e-06
7.9346e-06
7.959e-06
7.9346e-06
7.959e-06
7.9102e-06
7.9346e-06
7.9102e-06
7.9346e-06
7.9102e-06
7.9346e-06
7.9102e-06
7.9346e-06
7.9102e-06
7.9346e-06
7.9102e-06
7.9346e-06
7.9102e-06
7.9102e-06
7.9102e-06
7.9102e-06
7.9102e-06
7.9102e-06
7.8857e-06
7.9102e-06
7.8857e-06
7.9102e-06
7.8857e-06
7.9102e-06
7.8857e-06
7.9102e-06
7.8857e-06
7.9102e-06
7.8857e-06
7.9102e-06
7.8857e-06
7.9102e-06
7.8857e-06
7.9102e-06
7.8857e-06
7.9102e-06
7.8857e-06
7.9102e-06
7.8857e-06
7.9102e-06
7.8857e-06
7.9102e-06
7.8857e-06
7.9102e-06
7.8857e-06
7.9102e-06
7.8857e-06
7.9102e-06
7.8857e-06
7.9102e-06
7.8857e-06
7.9102e-06
7.8857e-06
7.9102e-06
7.8857e-06
7.9102e-06
7.8857e-06
7.9102e-06
7.8857e-06
7.9102e-06
7.8857e-06
7.8857e-06
7.8857e-06
7.9102e-06
7.8857e-06
7.8857e-06
7.8857e-06
7.9102e-06
7.8857e-06
7.8857e-06
7.8857e-06
7.9102e-06
7.8857e-06
7.8857e-06
7.8857e-06
7.9102e-06
7.8857e-06
7.8857e-06
7.8857e-06
7.8857e-06
7.8857e-06
7.9102e-06
7.8857e-06
7.9102e-06
7.8857e-06
7.9102e-06
7.8857e-06
7.9102e-06
7.8857e-06
7.9102e-06
7.8857e-06
7.9102e-06
7.8857e-06
7.8857e-06
7.8857e-06
7.9102e-06
7.8857e-06
7.8857e-06
7.8857e-06
7.9102e-06
7.8857e-06
7.8857e-06
7.8857e-06
7.8857e-06
7.8857e-06
7.8857e-06
7.8857e-06
7.8857e-06
7.8857e-06
7.8857e-06
7.8857e-06
7.8857e-06
7.8857e-06
7.8857e-06
7.8857e-06
7.8857e-06
7.8857e-06
7.8857e-06
7.8857e-06
7.8857e-06
7.8857e-06
7.8857e-06
7.8857e-06
7.8857e-06
7.8857e-06
7.8857e-06
7.8613e-06
7.8857e-06
7.8613e-06
7.8857e-06
7.8613e-06
7.8857e-06
7.8613e-06
7.8857e-06
7.8613e-06
7.8857e-06
7.8857e-06
7.8857e-06
7.8613e-06
7.8857e-06
7.8613e-06
7.8857e-06
7.8613e-06
7.8857e-06
7.8613e-06
7.8857e-06
7.8613e-06
7.8857e-06
